timestamp,sample_0,sample_1,sample_2,sample_3,sample_4,sample_5,sample_6,sample_7,sample_8,sample_9,sample_10,sample_11,sample_12,sample_13,sample_14,sample_15,sample_16,sample_17,sample_18,sample_19,sample_20,sample_21,sample_22,sample_23,sample_24,sample_25,sample_26,sample_27,sample_28,sample_29,sample_30,sample_31,sample_32,sample_33,sample_34,sample_35,sample_36,sample_37,sample_38,sample_39,sample_40,sample_41,sample_42,sample_43,sample_44,sample_45,sample_46,sample_47,sample_48,sample_49,sample_50,sample_51,sample_52,sample_53,sample_54,sample_55,sample_56,sample_57,sample_58,sample_59,sample_60,sample_61,sample_62,sample_63,sample_64,sample_65,sample_66,sample_67,sample_68,sample_69,sample_70,sample_71,sample_72,sample_73,sample_74,sample_75,sample_76,sample_77,sample_78,sample_79,sample_80,sample_81,sample_82,sample_83,sample_84,sample_85,sample_86,sample_87,sample_88,sample_89,sample_90,sample_91,sample_92,sample_93,sample_94,sample_95,sample_96,sample_97,sample_98,sample_99
1745596779.3584535,2.4266661029250827,2.4247335802356247,2.4211906219716184,2.4170034894777928,2.4124942698690575,2.4066967018006835,2.4018653950770386,2.3989666110428516,2.3999328723875806,2.401543307962129,2.3999328723875806,2.395745739893755,2.3902702589402907,2.3838285166420974,2.3809297326079104,2.376420512999175,2.374487990309717,2.372877554735169,2.369656683586072,2.364181202632608,2.3567731989896856,2.3480768468871247,2.3397025818994734,2.336159623635467,2.334549188060919,2.332294578256551,2.329717881337274,2.322954051924171,2.3136135255917907,2.3033067379146814,2.29493247292703,2.2868802950542886,2.2804385527560953,2.2785060300666373,2.2775397687219083,2.2756072460324503,2.270131765078986,2.2656225454702508,2.259824977401877,2.257892454712419,2.254671583563322,2.253705322218593,2.2517727995291352,2.248229841265129,2.2430764474265743,2.240499750507297,2.2379230535880197,2.2372788793582004,2.239533489162568,2.2430764474265743,2.246297318575671,2.2517727995291352,2.2543494964484125,2.25692619336769,2.2582145418273285,2.260791238746606,2.2656225454702508,2.2717422006535344,2.2810827269859146,2.2891349048586562,2.298797518305946,2.308460131753236,2.3184448323154356,2.328429532877635,2.3422792788187508,2.356451111874776,2.37191129339044,2.3876935620210133,2.402187482191948,2.417647663707612,2.432141583878547,2.4479238525091205,2.4643502953695133,2.478844215540448,2.494304397056112,2.5113750141463242,2.5284456312365364,2.54422789986711,2.556467210233677,2.568062346370425,2.5783691340475343,2.5896421830693725,2.600593144976301,2.6118661939981394,2.6224950687901583,2.632157682237448,2.6385994245356414,2.645685341063654,2.6489062122127507,2.653415431821486,2.6566363029705826,2.660179261234589,2.665010567958234,2.669841874681879,2.672740658716066,2.6720964844862465,2.672418571601156,2.6759615298651624,2.6785382267844398,2.683047446393175
1745596779.4741204,2.685946230427362,2.688845014461549,2.6894891886913683,2.6885229273466393,2.6910996242659166,2.6920658856106456,2.694642582529923,2.6952867567597423,2.69754136656411,2.7007622377132066,2.701406411943026,2.698507627908839,2.6943204954150133,2.6894891886913683,2.68787875311682,2.6882008402317297,2.6910996242659166,2.694642582529923,2.696575105219381,2.6949646696448326,2.6923879727255553,2.6904554500360973,2.6882008402317297,2.6853020561975427,2.684013707737904,2.6853020561975427,2.6875566660019103,2.68787875311682,2.6843357948528137,2.6798265752440784,2.67821613966953,2.677249878324801,2.6766057040949818,2.674351094290614,2.6711302231415175,2.6691977004520595,2.6662989164178725,2.665976829302963,2.664688480843324,2.663078045268776,2.664044306613505,2.665654742188053,2.66855352622224,2.6691977004520595,2.670486048911698,2.669519787566969,2.66855352622224,2.6662989164178725,2.665976829302963,2.6662989164178725,2.665976829302963,2.66855352622224,2.667909351992421,2.665976829302963,2.6608234354644082,2.656314215855673,2.6530933447065763,2.6521270833618473,2.651482909132028,2.64955038644257,2.64955038644257,2.6450411668338347,2.640854034340009,2.635378553386545,2.634412292041816,2.6366669018461835,2.637311076076003,2.638921511650551,2.637311076076003,2.636022727616364,2.631513508007629,2.629258898203261,2.628614723973442,2.629258898203261,2.63022515954799,2.6318355951225385,2.629580985318171,2.6279705497436225,2.6234613301348872,2.6215288074454293,2.6166975007217843,2.6137987166875973,2.6118661939981394,2.614120803802507,2.6157312393770553,2.6147649780323263,2.6144428909174167,2.613154542457778,2.6144428909174167,2.6134766295726877,2.6096115841937717,2.6070348872744944,2.604458190355217,2.604458190355217,2.6051023645850364,2.6028477547806688,2.600915232091211,2.5993047965166625,2.5993047965166625,2.5993047965166625
1745596779.6592603,2.6022035805508494,2.603491929010488,2.6041361032403074,2.6051023645850364,2.603491929010488,2.600915232091211,2.60155940632103,2.6022035805508494,2.6038140161253978,2.6028477547806688,2.6002710578613915,2.597050186712295,2.590930531529011,2.5886759217246436,2.589964270184282,2.592863054218469,2.595117664022837,2.596728099597385,2.595117664022837,2.5906084444141015,2.5841667021159083,2.575792437128257,2.569994869059883,2.5667739979107864,2.56355312676169,2.562586865416961,2.558399732923135,2.5542126004293095,2.5477708581311163,2.5397186802583747,2.5329548508452717,2.5290898054663558,2.524258498742711,2.5236143245128915,2.5245805858576205,2.52490267297253,2.52522476008744,2.525868934317259,2.5284456312365364,2.530700241040904,2.5348873735347297,2.5381082446838263,2.5387524189136457,2.5352094606496394,2.5290898054663558,2.5226480631681625,2.5168504950997885,2.514273798180511,2.514595885295421,2.5178167564445175,2.522325976053253,2.525868934317259,2.5319885895005427,2.5352094606496394,2.5381082446838263,2.5406849416031037,2.548092945246026,2.5532463390845805,2.557433471578406,2.559365994267864,2.557433471578406,2.55356842619949,2.5497033808205742,2.5477708581311163,2.549059206590755,2.552602164854761,2.5609764298424125,2.5683844334853347,2.5735378273238894,2.5770807855878957,2.5761145242431667,2.5741820015537087,2.5732157402089797,2.57289365309407,2.5732157402089797,2.5754703500133473,2.575792437128257,2.575792437128257,2.5751482628984377,2.5761145242431667,2.5754703500133473,2.5754703500133473,2.5735378273238894,2.5716053046344314,2.569028607715154,2.565163562336238,2.562586865416961,2.5580776458082255,2.547126683901297,2.5284456312365364,2.4975252682052087,2.449534288083669,2.3902702589402907,2.3235982261539903,2.254027409333503,2.1709289336868096,2.0791341059375554,1.981863797234837,1.8781517462339252,1.7715409111988265
1745596779.8648205,1.6691172086575534,1.5724910741846543,1.501953996019438,1.4819845948950388,1.5141933063860051,1.6021230887563433,1.7290254120307509,1.9068174994608853,2.1683522367675323,2.463706121139694,2.725240858446341,2.9271894794947,3.0695519842847716,3.1626351604936644,3.2144911859941203,3.2344605871185195,3.229951367509784,3.2093377921555657,3.1758407322049607,3.1339694072667044,3.084690078685526,3.0325119660701603,2.9851651601784397,2.941683399665635,2.9030329458764754,2.8692137988109607,2.8376492615498137,2.8054405500588473,2.767434270499507,2.7255629455612507,2.682081185048446,2.6395656858803704,2.603491929010488,2.5741820015537087,2.551957990624942,2.5368198962241877,2.52490267297253,2.51556214664015,2.5075099687674083,2.5007461393543053,2.494304397056112,2.4936602228262927,2.491405613021925,2.4920497872517444,2.492371874366654,2.4926939614815637,2.4920497872517444,2.490439351677196,2.488828916102648,2.4897951774473768,2.4901172645622864,2.488506828987738,2.48689639341319,2.4814209124597255,2.4756233443913516,2.4749791701615322,2.4711141247826163,2.4691816020931583,2.4691816020931583,2.46757116651861,2.4669269922887906,2.465638643829152,2.4662828180589713,2.4653165567142423,2.4649944695993327,2.465638643829152,2.4672490794037003,2.4672490794037003,2.4669269922887906,2.4620956855651457,2.4566202046116814,2.449534288083669,2.445669242704753,2.443736720015295,2.444702981360024,2.4450250684749335,2.4430925457854755,2.4401937617512885,2.4347182807978243,2.4276323642698117,2.4218347962014377,2.415715141018154,2.412816356983967,2.41023966006469,2.408951311605051,2.407018788915593,2.405086266226135,2.4018653950770386,2.3960678270086646,2.3896260847104713,2.3838285166420974,2.3777088614588138,2.372555467620259,2.3683683351264335,2.3616045057133306,2.3561290247598663,2.3483989340020344,2.3413130174740218,2.334549188060919,2.329395794222364
1745596780.0607111,2.3261749230732676,2.3203773550048936,2.3149018740514293,2.3091043059830554,2.299763779650675,2.2926778631226625,2.2881686435139272,2.2833373367902823,2.2794722914113663,2.2743188975728117,2.268199242389528,2.262723761436064,2.254993670678232,2.2485519283800386,2.243398534541484,2.2408218376222067,2.2388893149327487,2.235668443783652,2.2340580082091037,2.2301929628301878,2.225039568991633,2.224073307646904,2.2237512205319945,2.225361656106543,2.22793835302582,2.232769659749465,2.2372788793582004,2.2398555762774777,2.2417880989669356,2.241466011852026,2.2417880989669356,2.246297318575671,2.2517727995291352,2.258536628942238,2.2665888068149798,2.273996810457902,2.279794378526276,2.2878465563990176,2.296220821386669,2.308460131753236,2.3213436163496226,2.337447972095106,2.353552327840589,2.370945032045711,2.3867273006762844,2.4008991337323096,2.415715141018154,2.4334299323381856,2.451144723658217,2.46757116651861,2.4843196964939125,2.501068226469215,2.518460930674337,2.531666502385633,2.5439058127522003,2.557433471578406,2.5722494788642507,2.5851329634606373,2.596083925367566,2.6038140161253978,2.6096115841937717,2.6183079362963326,2.6260380270541646,2.633123943582177,2.641820295684738,2.6498724735574797,2.654381693166215,2.6559921287407633,2.6556700416258536,2.657280477200402,2.656314215855673,2.662111783924047,2.6634001323836856,2.667587264877511,2.671452310256427,2.6749952685204335,2.676283616980072,2.6766057040949818,2.674673181405524,2.6759615298651624,2.6759615298651624,2.6785382267844398,2.6795044881291687,2.6788603138993494,2.680148662358988,2.6795044881291687,2.6775719654397108,2.6872345788870007,2.681114923703717,2.681114923703717,2.692710059840465,2.6827253592782654,2.68787875311682,2.6901333629211877,2.692710059840465,2.6846578819677234,2.6882008402317297,2.6759615298651624,2.6862683175422717,2.6930321469553746
1745596780.262739,2.686912491772091,2.686912491772091,2.6843357948528137,2.673384832945885,2.673706920060795,2.6624338710389566,2.653415431821486,2.6614676096942276,2.6637222194985952,2.6624338710389566,2.667909351992421,2.6720964844862465,2.665976829302963,2.6566363029705826,2.6450411668338347,2.6598571741196793,2.647617863753112,2.6443969926040154,2.6518049962469377,2.650516647787299,2.648584125097841,2.642786557029467,2.6357006405014545,2.63022515954799,2.6402098601101898,2.6402098601101898,2.640854034340009,2.637311076076003,2.634412292041816,2.63022515954799,2.6241055043647066,2.617985849181423,2.6183079362963326,2.615087065147236,2.6192741976410616,2.614120803802507,2.622817155905068,2.612188281113049,2.605424451699946,2.6134766295726877,2.618952110526152,2.624749678594526,2.6202404589857906,2.6137987166875973,2.6250717657094356,2.6192741976410616,2.6144428909174167,2.6118661939981394,2.605424451699946,2.614120803802507,2.618952110526152,2.6163754136068746,2.6166975007217843,2.6134766295726877,2.6128324553428683,2.6125103682279587,2.6031698418955784,2.6105778455385007,2.6086453228490427,2.6147649780323263,2.6166975007217843,2.6137987166875973,2.61122201976832,2.6115441068832297,2.6108999326534104,2.6137987166875973,2.6137987166875973,2.6134766295726877,2.6118661939981394,2.6099336713086814,2.6070348872744944,2.6057465388148557,2.606390713044675,2.607356974389404,2.609289497078862,2.610255758423591,2.6144428909174167,2.6115441068832297,2.6105778455385007,2.607356974389404,2.6012373192061204,2.6086453228490427,2.6086453228490427,2.6108999326534104,2.6118661939981394,2.6128324553428683,2.6108999326534104,2.6080011486192234,2.6057465388148557,2.605424451699946,2.6057465388148557,2.6051023645850364,2.605424451699946,2.606390713044675,2.605424451699946,2.6041361032403074,2.6051023645850364,2.600915232091211,2.598982709401753,2.598660622286843
1745596780.4571967,2.5925409671035595,2.597050186712295,2.593829315563198,2.591252618643921,2.589320095954463,2.586421311920276,2.5832004407711793,2.5812679180817213,2.583522527886089,2.5838446150009986,2.5832004407711793,2.5799795696220826,2.5751482628984377,2.571927391749341,2.5693506948300637,2.5654856494511478,2.568062346370425,2.569028607715154,2.5693506948300637,2.5696727819449734,2.5648414752213284,2.5645193881064188,2.5590439071529545,2.5561451231187675,2.554856774659129,2.546160422556568,2.538430331798736,2.537464070454007,2.526191021432169,2.521359714708524,2.519105104904156,2.520393453363795,2.520393453363795,2.522003888938343,2.527801457006717,2.5329548508452717,2.5342431993049104,2.5329548508452717,2.5300560668110847,2.526835195661988,2.522003888938343,2.516528407984879,2.513629623950692,2.5104087528015953,2.5071878816524986,2.5062216203077696,2.503967010503402,2.5046111847332213,2.5062216203077696,2.508798317227047,2.5129854497208726,2.520071366248885,2.529733979696175,2.5377861575689167,2.5426174642925616,2.5464825096714776,2.5513138163951226,2.555500948888948,2.5551788617740385,2.5561451231187675,2.55356842619949,2.5532463390845805,2.5551788617740385,2.556789297348587,2.56323103964678,2.5696727819449734,2.5722494788642507,2.573859914438799,2.5754703500133473,2.5735378273238894,2.5696727819449734,2.568062346370425,2.5687065206002444,2.5693506948300637,2.569028607715154,2.569028607715154,2.5687065206002444,2.5658077365660574,2.5609764298424125,2.5609764298424125,2.559688081382774,2.561620604072232,2.562586865416961,2.562586865416961,2.557433471578406,2.543261638522381,2.51524005952524,2.4785221284255385,2.4260219286952633,2.36224867994315,2.2984754311910365,2.2247174818767235,2.140652744885301,2.050790439825505,1.9515876084333286,1.8433663378236815,1.7341788058693055,1.6317551033280324,1.5422148853831459,1.4926134696870577
1745596780.6636631,1.4964785150659736,1.555420457094442,1.6646079890488181,1.8118018005625345,2.0266339062072802,2.309426393097965,2.5857771376904566,2.820900731574511,2.992573163821362,3.107558263844112,3.1780953420093283,3.208049443695927,3.2112703148450237,3.194843871984631,3.1693989899067674,3.1346135814965237,3.094030605017906,3.050226757390192,3.005778735532658,2.964551584824221,2.9249348696903326,2.8846739803266246,2.8598732724785805,2.8308854321367107,2.800931330450112,2.771299315878423,2.7284617295954376,2.6904554500360973,2.6530933447065763,2.6183079362963326,2.59189679287374,2.569994869059883,2.551635903510032,2.5390745060285553,2.5284456312365364,2.5207155404787045,2.513629623950692,2.507832055882318,2.5042890976183116,2.501068226469215,2.499135703779757,2.499135703779757,2.498169442435028,2.4936602228262927,2.4901172645622864,2.48657430629828,2.482709260919364,2.480132564000087,2.471436211897526,2.4765896057360806,2.477877954195719,2.4759454315062612,2.4794883897702675,2.4730466474720743,2.4711141247826163,2.471436211897526,2.469503689208068,2.46757116651861,2.4672490794037003,2.4678932536335196,2.4653165567142423,2.4585527273011394,2.4517888978880364,2.4469575911643915,2.445669242704753,2.445669242704753,2.4450250684749335,2.443736720015295,2.4372949777171016,2.4308532354189083,2.4266661029250827,2.4211906219716184,2.41958018639707,2.4179697508225217,2.4199022735119797,2.4134605312137865,2.4144267925585154,2.414104705443606,2.408307137375232,2.402187482191948,2.3963899141235743,2.3912365202850197,2.3934911300893873,2.3960678270086646,2.3989666110428516,2.3992886981577612,2.3941353043192066,2.3886598233657423,2.380285558378091,2.3796413841482718,2.3731996418500785,2.368690422241343,2.3674020737817045,2.3561290247598663,2.3512977180362213,2.3455001499678474,2.3422792788187508,2.332294578256551,2.3184448323154356,2.318122745200526
1745596780.8596492,2.3110368286725134,2.3013742152252235,2.3052392606041394,2.2994416925357655,2.293322037352482,2.289456991973566,2.2868802950542886,2.2852698594797403,2.283659423905192,2.2814048141008243,2.276895594492089,2.2698096779640764,2.262723761436064,2.254027409333503,2.2479077541502193,2.2450089701160323,2.2456531443458516,2.2379230535880197,2.2398555762774777,2.2392114020476583,2.2392114020476583,2.2363126180134714,2.23760096647311,2.2408218376222067,2.2446868830011226,2.250162363954587,2.254993670678232,2.260791238746606,2.2640121098957025,2.2649783712404314,2.267232981044799,2.27592933314736,2.28559194659465,2.2965429085015785,2.3078159575234167,2.319089006545255,2.3290737071074545,2.3416351045889314,2.3580615474493243,2.368690422241343,2.385116865101736,2.4037979177664965,2.4170034894777928,2.4411600230960175,2.4572643788415007,2.4701478634378873,2.484641783608822,2.4988136166648474,2.511697101261234,2.528767718351446,2.5426174642925616,2.554534687544219,2.56323103964678,2.573859914438799,2.5832004407711793,2.5915747057588305,2.6031698418955784,2.6137987166875973,2.6241055043647066,2.6318355951225385,2.635378553386545,2.638277337420732,2.6434307312592864,2.6460074281785637,2.6550258673960343,2.665010567958234,2.669841874681879,2.672740658716066,2.672418571601156,2.6795044881291687,2.676283616980072,2.670486048911698,2.6682314391073305,2.672740658716066,2.6769277912098914,2.6766057040949818,2.6769277912098914,2.6827253592782654,2.6814370108186267,2.6720964844862465,2.6720964844862465,2.669519787566969,2.680148662358988,2.6833695335080847,2.6785382267844398,2.6720964844862465,2.673384832945885,2.6740290071757045,2.671774397371337,2.6766057040949818,2.682081185048446,2.6795044881291687,2.6788603138993494,2.6766057040949818,2.682081185048446,2.683047446393175,2.671774397371337,2.6833695335080847,2.6827253592782654,2.674673181405524
1745596781.0643954,2.674351094290614,2.6759615298651624,2.6843357948528137,2.6775719654397108,2.671774397371337,2.6740290071757045,2.6643663937284146,2.6662989164178725,2.6759615298651624,2.675639442750253,2.6740290071757045,2.6720964844862465,2.656314215855673,2.6672651777626015,2.670808136026608,2.6608234354644082,2.672418571601156,2.670486048911698,2.6662989164178725,2.6624338710389566,2.664688480843324,2.656314215855673,2.6576025643153116,2.6585688256600406,2.6624338710389566,2.6624338710389566,2.6595350870047696,2.6595350870047696,2.655347954510944,2.657280477200402,2.6540596060513053,2.6569583900854923,2.6556700416258536,2.6559921287407633,2.660179261234589,2.6588909127749503,2.6588909127749503,2.662111783924047,2.6598571741196793,2.6566363029705826,2.6547037802811246,2.6508387349022087,2.6498724735574797,2.6440749054891057,2.6414982085698284,2.63988777299528,2.6385994245356414,2.641820295684738,2.644719079718925,2.6450411668338347,2.6440749054891057,2.643752818374196,2.6479399508680217,2.6469736895232927,2.643752818374196,2.6479399508680217,2.646651602408383,2.645685341063654,2.6469736895232927,2.6482620379829314,2.6450411668338347,2.6453632539487444,2.6463295152934734,2.643752818374196,2.6414982085698284,2.644719079718925,2.6482620379829314,2.6443969926040154,2.6431086441443767,2.6453632539487444,2.6440749054891057,2.6385994245356414,2.645685341063654,2.651482909132028,2.6530933447065763,2.6508387349022087,2.6450411668338347,2.6421423827996477,2.6453632539487444,2.641820295684738,2.6392435987654608,2.6376331631909125,2.631513508007629,2.6385994245356414,2.6440749054891057,2.644719079718925,2.6421423827996477,2.637955250305822,2.6424644699145574,2.6366669018461835,2.6347343791567255,2.6405319472250994,2.636022727616364,2.644719079718925,2.6472957766382024,2.6489062122127507,2.650516647787299,2.6489062122127507,2.6482620379829314,2.6479399508680217
1745596781.2603397,2.6460074281785637,2.6450411668338347,2.6395656858803704,2.6385994245356414,2.638277337420732,2.6376331631909125,2.63988777299528,2.6421423827996477,2.6469736895232927,2.6492282993276604,2.6482620379829314,2.6540596060513053,2.647617863753112,2.6440749054891057,2.6402098601101898,2.636344814731274,2.631513508007629,2.629258898203261,2.628614723973442,2.627648462628713,2.628614723973442,2.632157682237448,2.632479769352358,2.629258898203261,2.6244275914796162,2.6241055043647066,2.6234613301348872,2.6202404589857906,2.617019587836694,2.612188281113049,2.607356974389404,2.605424451699946,2.609289497078862,2.609289497078862,2.609289497078862,2.608323235734133,2.6108999326534104,2.6125103682279587,2.6147649780323263,2.61122201976832,2.61122201976832,2.6144428909174167,2.612188281113049,2.6051023645850364,2.5964060124824755,2.5993047965166625,2.596083925367566,2.592863054218469,2.597694360942114,2.597050186712295,2.6051023645850364,2.6163754136068746,2.621850894560339,2.6250717657094356,2.6260380270541646,2.628292636858532,2.623783417249797,2.63022515954799,2.636988988961093,2.6450411668338347,2.6479399508680217,2.6492282993276604,2.648584125097841,2.646651602408383,2.6453632539487444,2.646651602408383,2.648584125097841,2.64955038644257,2.6463295152934734,2.6450411668338347,2.638921511650551,2.6421423827996477,2.6463295152934734,2.6434307312592864,2.647617863753112,2.6421423827996477,2.6414982085698284,2.6424644699145574,2.6402098601101898,2.6411761214549188,2.637955250305822,2.629258898203261,2.633446030697087,2.631513508007629,2.633446030697087,2.6299030724330805,2.6173416749516036,2.5925409671035595,2.558721820038045,2.514273798180511,2.4701478634378873,2.416681402362883,2.3599940701387823,2.2752851589175407,2.187677463662112,2.1000697684066836,1.9989344143250491,1.894578189094318,1.8034275355748832,1.7200069728132803
1745596781.4622386,1.6543012013717089,1.613074050663272,1.6211262285360135,1.6816786061390303,1.7808814375312068,1.9283973361598328,2.1564350135158747,2.4221568833163474,2.664044306613505,2.854719878640026,2.9957940349704586,3.086622601374984,3.1375123655307107,3.1626351604936644,3.1690769027918577,3.161024724919116,3.1397669753350783,3.115932528831763,3.091131820983719,3.0631102419865783,3.035732837219257,3.00416829995811,2.9822663761442527,2.957143581181299,2.934275396022713,2.9088305139448494,2.894014506659005,2.8721125828451477,2.846023526537465,2.8225111671490595,2.785471148934448,2.7564833085925784,2.727173381135799,2.707848154241219,2.6788603138993494,2.657280477200402,2.633123943582177,2.6166975007217843,2.6041361032403074,2.600593144976301,2.599626883631572,2.5983385351719335,2.595761838252656,2.5886759217246436,2.5848108763457276,2.5783691340475343,2.5735378273238894,2.5716053046344314,2.569994869059883,2.568062346370425,2.5683844334853347,2.5706390432897024,2.5693506948300637,2.566129823680967,2.5638752138765994,2.562264778302051,2.56323103964678,2.5580776458082255,2.554534687544219,2.5484150323609356,2.5381082446838263,2.5284456312365364,2.522003888938343,2.523936411627801,2.5303781539259944,2.5358536348794587,2.5358536348794587,2.5361757219943684,2.5339211121900007,2.5294118925812654,2.5255468472023495,2.522325976053253,2.516206320869969,2.5094424914568663,2.5052553589630406,2.5017124006990343,2.5036449233884923,2.4946264841710217,2.4917277001368348,2.488828916102648,2.487540567643009,2.4823871738044545,2.481098825344816,2.481742999574635,2.482709260919364,2.481098825344816,2.4740129088168032,2.4691816020931583,2.4585527273011394,2.453077246347675,2.4508226365433075,2.450500549428398,2.449212200968759,2.4459913298196625,2.443736720015295,2.4363287163723726,2.4285986256145407,2.421512709086528,2.412816356983967,2.406052527570864
1745596781.6636755,2.397678262583213,2.394779478549026,2.3864052135613747,2.378353035688633,2.370945032045711,2.363214941287879,2.3577394603344146,2.351619805151131,2.3480768468871247,2.340990930359112,2.3377700592100155,2.321987790579442,2.318122745200526,2.31425769982161,2.3100705673277844,2.3042729992594104,2.298153344076127,2.29493247292703,2.293322037352482,2.293322037352482,2.29525456004194,2.292033688892843,2.293322037352482,2.296864995616488,2.302018389455043,2.3039509121445008,2.313291438476881,2.3155460482812487,2.3126472642470617,2.3023404765699524,2.3058834348339587,2.317156483855797,2.3149018740514293,2.332616665371461,2.335515449405648,2.3532302407256793,2.3654695510922465,2.366757899551885,2.3760984258842655,2.385116865101736,2.402187482191948,2.413138444098877,2.421512709086528,2.436972890602192,2.442448371555656,2.453077246347675,2.4640282082546037,2.483675522264093,2.4984915295499377,2.514595885295421,2.5271572827768978,2.5477708581311163,2.554534687544219,2.5677402592555154,2.5803016567369923,2.592863054218469,2.6067128001595847,2.6186300234112423,2.628614723973442,2.632157682237448,2.6347343791567255,2.634412292041816,2.634090204926906,2.6395656858803704,2.6421423827996477,2.6431086441443767,2.645685341063654,2.650516647787299,2.6556700416258536,2.660179261234589,2.661145522579318,2.664044306613505,2.6634001323836856,2.6624338710389566,2.66855352622224,2.6730627458309755,2.673384832945885,2.6730627458309755,2.6730627458309755,2.669519787566969,2.665976829302963,2.6730627458309755,2.675317355635343,2.667909351992421,2.6672651777626015,2.6662989164178725,2.673384832945885,2.6759615298651624,2.670486048911698,2.6749952685204335,2.6904554500360973,2.6910996242659166,2.684979969082633,2.683047446393175,2.6775719654397108,2.6711302231415175,2.6672651777626015,2.6653326550731435,2.6617896968091372,2.6672651777626015
1745596781.8595657,2.6605013483494986,2.666621003532782,2.6605013483494986,2.6588909127749503,2.6559921287407633,2.6576025643153116,2.6521270833618473,2.6550258673960343,2.6482620379829314,2.6537375189363956,2.6453632539487444,2.6489062122127507,2.6366669018461835,2.6289368110883515,2.6270042883988936,2.636344814731274,2.632157682237448,2.6424644699145574,2.6357006405014545,2.637955250305822,2.631191420892719,2.629580985318171,2.6279705497436225,2.6270042883988936,2.624749678594526,2.623783417249797,2.62088463321561,2.6231392430199776,2.6144428909174167,2.6105778455385007,2.605424451699946,2.6070348872744944,2.600915232091211,2.598016448057024,2.600915232091211,2.598982709401753,2.589964270184282,2.5857771376904566,2.5860992248053662,2.5809458309668116,2.580623743851902,2.580623743851902,2.589964270184282,2.5857771376904566,2.585455050575547,2.5841667021159083,2.5832004407711793,2.5812679180817213,2.579657482507173,2.5780470469326247,2.58255626654136,2.5735378273238894,2.571927391749341,2.569994869059883,2.5687065206002444,2.566129823680967,2.5674181721406057,2.5706390432897024,2.5716053046344314,2.5754703500133473,2.5629089525318705,2.5664519107958768,2.5629089525318705,2.5638752138765994,2.5506696421653032,2.561298516957322,2.5645193881064188,2.5751482628984377,2.569028607715154,2.5754703500133473,2.576758698472986,2.5793353953922633,2.569994869059883,2.5764366113580763,2.578691221162444,2.583522527886089,2.5812679180817213,2.5735378273238894,2.5716053046344314,2.5693506948300637,2.5664519107958768,2.564197300991509,2.5703169561747927,2.5674181721406057,2.5751482628984377,2.5703169561747927,2.5674181721406057,2.549059206590755,2.550025467935484,2.542295377177652,2.539396593143465,2.527801457006717,2.5323106766154524,2.5294118925812654,2.529733979696175,2.523936411627801,2.516528407984879,2.516528407984879,2.5168504950997885,2.522003888938343
1745596782.0669706,2.523292237397982,2.5313444152707234,2.529733979696175,2.535531547764549,2.530700241040904,2.533599025075091,2.5271572827768978,2.5236143245128915,2.5133075368357822,2.5104087528015953,2.5036449233884923,2.50589953319286,2.5023565749288537,2.5046111847332213,2.5055774460779503,2.5158842337550595,2.517172582214698,2.5281235441216268,2.5339211121900007,2.536497809109278,2.5348873735347297,2.537464070454007,2.5397186802583747,2.541329115832923,2.5429395514074713,2.543261638522381,2.5448720740969293,2.5410070287180133,2.5455162483267486,2.5439058127522003,2.5474487710162066,2.5477708581311163,2.558399732923135,2.56323103964678,2.5712832175195217,2.575792437128257,2.5783691340475343,2.580623743851902,2.571927391749341,2.5722494788642507,2.5716053046344314,2.5745040886686184,2.567096085025696,2.5658077365660574,2.5645193881064188,2.5619426911871415,2.551635903510032,2.5542126004293095,2.5503475550503936,2.5513138163951226,2.5439058127522003,2.546160422556568,2.5303781539259944,2.5091204043419566,2.481098825344816,2.4392275004065596,2.3954236527788453,2.3368037978652865,2.2752851589175407,2.2047480807523243,2.1258367375994567,2.028888516011648,1.9419249949860387,1.8420779893640429,1.7573690781428013,1.6803902576793917,1.6172611831570975,1.574745683989022,1.5618621993926354,1.594715085113421,1.6642859019339085,1.7802372633013874,1.9580293507315218,2.191542509041028,2.4337520194530953,2.629580985318171,2.776774796831887,2.8801647607178893,2.9461926192743704,2.9813001147995237,2.993539425166091,2.9880639442126267,2.974214198271511,2.9461926192743704,2.933953308907803,2.9114072108641267,2.8924040710844565,2.8672812761215027,2.855686139984755,2.8366830002050847,2.815103163506137,2.7909466298879124,2.762602963775862,2.739412691502366,2.7139678094245028,2.6856241433124524,2.655347954510944,2.6270042883988936,2.5870654861500952,2.5693506948300637
1745596782.263823,2.545194161211839,2.5187830177892465,2.4997798780095764,2.487862654757919,2.4759454315062612,2.4736908217018936,2.4604852499905974,2.460807337105507,2.452110985002946,2.456942291726591,2.456942291726591,2.451466810773127,2.446635504049482,2.445347155589843,2.442448371555656,2.440515848866198,2.436972890602192,2.4385833261767402,2.4372949777171016,2.4363287163723726,2.4337520194530953,2.4308532354189083,2.4276323642698117,2.4269881900399923,2.432141583878547,2.4318194967636373,2.430209061189089,2.4298869740741793,2.4260219286952633,2.422478970431257,2.4231231446610764,2.425377754465444,2.4211906219716184,2.41958018639707,2.416681402362883,2.4179697508225217,2.4237673188908957,2.4173255765927024,2.4095954858348705,2.4105617471795995,2.4179697508225217,2.421512709086528,2.422478970431257,2.4153930539032444,2.4202243606268894,2.4179697508225217,2.4124942698690575,2.4095954858348705,2.407018788915593,2.4095954858348705,2.4086292244901415,2.412172182754148,2.408951311605051,2.402187482191948,2.406052527570864,2.403475830651587,2.4028316564217675,2.402509569306858,2.4037979177664965,2.4008991337323096,2.3973561754683033,2.392846955859568,2.3857610393315554,2.377386774343904,2.3712671191606205,2.366757899551885,2.3664358124369755,2.364825376862427,2.364181202632608,2.3616045057133306,2.357417373219505,2.3538744149554987,2.3480768468871247,2.3451780628529377,2.3432455401634797,2.341957191703841,2.340024669014383,2.3358375365205575,2.331328316911822,2.3264970101881772,2.3235982261539903,2.3255307488434482,2.3252086617285386,2.3271411844179966,2.3242424003838096,2.3223098776943516,2.3194110936601646,2.3174785709707066,2.316190222511068,2.3174785709707066,2.320055267889984,2.322954051924171,2.326819097303087,2.334549188060919,2.336159623635467,2.339380494784564,2.34292345304857,2.3471105855423957,2.3570952861045953,2.3645032897475176
1745596782.4603806,2.372877554735169,2.3770646872289944,2.3818959939526394,2.3934911300893873,2.3992886981577612,2.4134605312137865,2.4289207127294503,2.445347155589843,2.459841075760778,2.4746570830466226,2.487862654757919,2.502034487813944,2.5149179724103305,2.530700241040904,2.5410070287180133,2.556789297348587,2.5735378273238894,2.590286357299192,2.6051023645850364,2.616053326491965,2.6241055043647066,2.629580985318171,2.634412292041816,2.6443969926040154,2.648584125097841,2.6547037802811246,2.658246738545131,2.6608234354644082,2.6643663937284146,2.6672651777626015,2.669841874681879,2.673384832945885,2.673384832945885,2.6769277912098914,2.6740290071757045,2.674673181405524,2.673706920060795,2.6749952685204335,2.674673181405524,2.677249878324801,2.6749952685204335,2.676283616980072,2.676283616980072,2.6769277912098914,2.674351094290614,2.673384832945885,2.672740658716066,2.672418571601156,2.6691977004520595,2.672740658716066,2.6730627458309755,2.6701639617967885,2.671452310256427,2.662111783924047,2.6608234354644082,2.658246738545131,2.6598571741196793,2.6579246514302213,2.65921299988986,2.65921299988986,2.6508387349022087,2.6540596060513053,2.6501945606723893,2.643752818374196,2.637955250305822,2.6469736895232927,2.6479399508680217,2.6453632539487444,2.6440749054891057,2.6421423827996477,2.638277337420732,2.6376331631909125,2.6337681178119965,2.6402098601101898,2.643752818374196,2.6424644699145574,2.636344814731274,2.635056466271635,2.628292636858532,2.623783417249797,2.618952110526152,2.6183079362963326,2.617985849181423,2.615087065147236,2.617019587836694,2.6157312393770553,2.6096115841937717,2.6028477547806688,2.5954397511377465,2.590286357299192,2.587387573265005,2.5857771376904566,2.5860992248053662,2.5790133082773536,2.5812679180817213,2.576758698472986,2.5741820015537087,2.5712832175195217,2.569994869059883,2.5696727819449734
1745596782.6638656,2.5712832175195217,2.5706390432897024,2.5696727819449734,2.5609764298424125,2.5648414752213284,2.564197300991509,2.56323103964678,2.562586865416961,2.5609764298424125,2.560654342727503,2.557755558693316,2.554856774659129,2.549059206590755,2.5429395514074713,2.5416512029478326,2.541329115832923,2.539396593143465,2.5377861575689167,2.5361757219943684,2.5323106766154524,2.526835195661988,2.5255468472023495,2.520393453363795,2.5207155404787045,2.522003888938343,2.5271572827768978,2.524258498742711,2.520071366248885,2.5168504950997885,2.511697101261234,2.5113750141463242,2.5133075368357822,2.512663362605963,2.5133075368357822,2.5168504950997885,2.5158842337550595,2.5168504950997885,2.5129854497208726,2.509764578571776,2.5062216203077696,2.5139517110656016,2.5091204043419566,2.5062216203077696,2.4994577908946667,2.4997798780095764,2.4901172645622864,2.483997609379003,2.4785221284255385,2.483031348034274,2.4730466474720743,2.469503689208068,2.4611294242204167,2.4562981174967717,2.4591969015309587,2.447601765394211,2.445669242704753,2.4440588071302045,2.447279678279301,2.450178462313488,2.451144723658217,2.4537214205774944,2.4562981174967717,2.45790855307132,2.4572643788415007,2.4630619469098747,2.4653165567142423,2.4649944695993327,2.4643502953695133,2.4633840340247843,2.459841075760778,2.456942291726591,2.460807337105507,2.4566202046116814,2.4620956855651457,2.4601631628756877,2.4630619469098747,2.468537427863339,2.4736908217018936,2.4785221284255385,2.4804546511149965,2.482065086689545,2.483031348034274,2.488506828987738,2.499135703779757,2.501068226469215,2.5042890976183116,2.501068226469215,2.5094424914568663,2.5123412754910532,2.51524005952524,2.523936411627801,2.524258498742711,2.526191021432169,2.5300560668110847,2.529733979696175,2.5303781539259944,2.5294118925812654,2.530700241040904,2.5310223281558137,2.5332769379601814
1745596782.8672884,2.533599025075091,2.5319885895005427,2.52522476008744,2.5265131085470784,2.5271572827768978,2.5245805858576205,2.522970150283072,2.521359714708524,2.519427192019066,2.514273798180511,2.5046111847332213,2.4862522191833705,2.4566202046116814,2.411850095639238,2.356451111874776,2.2955766471568495,2.233735921094194,2.1635209300438873,2.0836433255462907,1.9960356302908622,1.9026303669670597,1.8079367551836185,1.7180744501238223,1.6356201487069484,1.5676597674610093,1.535451055970043,1.5550983699795324,1.6224145769956522,1.7309579347202089,1.8794400946935639,2.090085067844484,2.37158920627553,2.664044306613505,2.9104409495193977,3.087588862719713,3.1999972658231854,3.260871730541112,3.2805190445506014,3.268601821298944,3.2402581551868934,3.201285614282824,3.1520062857016455,3.0943526921328157,3.0360549243341666,2.9774350694206078,2.92751156660961,2.8830635447520763,2.8415143069287296,2.8054405500588473,2.7709772287635133,2.7342592976638116,2.691743798495736,2.648584125097841,2.6028477547806688,2.5658077365660574,2.537464070454007,2.5168504950997885,2.5036449233884923,2.4946264841710217,2.488828916102648,2.480776738229906,2.4740129088168032,2.464672382484423,2.455976030381862,2.4498563751985785,2.446635504049482,2.447279678279301,2.4479238525091205,2.4498563751985785,2.44824593962403,2.447601765394211,2.445669242704753,2.447279678279301,2.4459913298196625,2.447279678279301,2.4469575911643915,2.4479238525091205,2.4459913298196625,2.4421262844407465,2.4376170648320112,2.436006629257463,2.436006629257463,2.4382612390618306,2.4401937617512885,2.4382612390618306,2.4356845421425533,2.4305311483039986,2.4269881900399923,2.4231231446610764,2.420546447741799,2.4199022735119797,2.4192580992821604,2.41958018639707,2.4173255765927024,2.414748879673425,2.412816356983967,2.40991757294978,2.407985050260322,2.4047641791112255,2.403475830651587
1745596783.0670443,2.4012212208472192,2.397678262583213,2.3912365202850197,2.3838285166420974,2.378353035688633,2.374487990309717,2.372877554735169,2.37158920627553,2.3703008578158915,2.3703008578158915,2.3674020737817045,2.3606382443686016,2.353552327840589,2.3483989340020344,2.3461443241976667,2.3464664113125764,2.347754759772215,2.3480768468871247,2.3480768468871247,2.34292345304857,2.335193362290738,2.328429532877635,2.3223098776943516,2.315223961166339,2.310392654442694,2.3042729992594104,2.297831256961217,2.290423253318295,2.284625685249921,2.276895594492089,2.2704538521938957,2.264656284125522,2.258536628942238,2.254993670678232,2.2475856670353096,2.2379230535880197,2.2292267014854588,2.2198861751530785,2.2111898230505176,2.2053922549821436,2.2024934709479567,2.200238861143589,2.2034597322926857,2.205070167867234,2.2073247776716016,2.2102235617057886,2.213766519969795,2.216343216889072,2.21859782669344,2.2189199138083495,2.219564088038169,2.221496610727627,2.219564088038169,2.220530349382898,2.224395394761814,2.2314813112898264,2.2398555762774777,2.250162363954587,2.260791238746606,2.2714201135386247,2.279794378526276,2.2859140337095596,2.297187082731398,2.3100705673277844,2.3235982261539903,2.339058407669654,2.3570952861045953,2.376742600114085,2.3941353043192066,2.408307137375232,2.4240894060058054,2.440837935981108,2.4601631628756877,2.477877954195719,2.4965590068604797,2.51556214664015,2.5303781539259944,2.5406849416031037,2.5513138163951226,2.562264778302051,2.5735378273238894,2.5828783536562696,2.5889980088395532,2.5944734897930175,2.5983385351719335,2.6038140161253978,2.61122201976832,2.6183079362963326,2.627326375513803,2.636344814731274,2.642786557029467,2.6482620379829314,2.6508387349022087,2.6527712575916667,2.6537375189363956,2.6540596060513053,2.653415431821486,2.6540596060513053,2.6547037802811246,2.655347954510944
1745596783.2591772,2.6556700416258536,2.6556700416258536,2.6559921287407633,2.654381693166215,2.6527712575916667,2.658246738545131,2.6511608220171183,2.652449170476757,2.652449170476757,2.651482909132028,2.6566363029705826,2.64955038644257,2.6472957766382024,2.646651602408383,2.6453632539487444,2.6472957766382024,2.6492282993276604,2.6472957766382024,2.6463295152934734,2.645685341063654,2.6421423827996477,2.6424644699145574,2.642786557029467,2.651482909132028,2.6450411668338347,2.643752818374196,2.640854034340009,2.6366669018461835,2.6337681178119965,2.631191420892719,2.6270042883988936,2.626682201283984,2.629258898203261,2.63988777299528,2.632479769352358,2.632479769352358,2.629258898203261,2.6250717657094356,2.621850894560339,2.619918371870881,2.624749678594526,2.627326375513803,2.627648462628713,2.6376331631909125,2.6328018564672675,2.6215288074454293,2.624749678594526,2.625715939939255,2.6279705497436225,2.625715939939255,2.629258898203261,2.6299030724330805,2.63022515954799,2.6244275914796162,2.6270042883988936,2.6241055043647066,2.6270042883988936,2.632157682237448,2.6202404589857906,2.6270042883988936,2.6279705497436225,2.6202404589857906,2.627648462628713,2.62088463321561,2.627326375513803,2.625715939939255,2.6215288074454293,2.6096115841937717,2.62088463321561,2.618952110526152,2.6166975007217843,2.6176637620665133,2.6147649780323263,2.6250717657094356,2.62088463321561,2.6244275914796162,2.6263601141690742,2.6231392430199776,2.627326375513803,2.6260380270541646,2.6289368110883515,2.6270042883988936,2.627326375513803,2.634412292041816,2.627648462628713,2.6241055043647066,2.6224950687901583,2.6192741976410616,2.6176637620665133,2.6186300234112423,2.6202404589857906,2.623783417249797,2.625715939939255,2.63022515954799,2.6244275914796162,2.6250717657094356,2.6163754136068746,2.616053326491965,2.618952110526152,2.62088463321561
1745596783.4581487,2.6234613301348872,2.621850894560339,2.6202404589857906,2.6224950687901583,2.6166975007217843,2.615087065147236,2.617019587836694,2.617019587836694,2.6137987166875973,2.6099336713086814,2.6031698418955784,2.598016448057024,2.593185141333379,2.590286357299192,2.5812679180817213,2.5770807855878957,2.5732157402089797,2.5696727819449734,2.5677402592555154,2.5658077365660574,2.567096085025696,2.5696727819449734,2.57289365309407,2.578691221162444,2.58255626654136,2.5832004407711793,2.5819120923115406,2.576758698472986,2.5706390432897024,2.562586865416961,2.557755558693316,2.556789297348587,2.559688081382774,2.561298516957322,2.567096085025696,2.5696727819449734,2.575792437128257,2.5799795696220826,2.5935072284482885,2.600915232091211,2.6028477547806688,2.600915232091211,2.6018814934359398,2.5954397511377465,2.600593144976301,2.600593144976301,2.6012373192061204,2.6038140161253978,2.6105778455385007,2.617019587836694,2.623783417249797,2.625715939939255,2.627648462628713,2.6192741976410616,2.622817155905068,2.6205625461007003,2.617019587836694,2.62088463321561,2.6202404589857906,2.6195962847559713,2.6205625461007003,2.6195962847559713,2.6215288074454293,2.6128324553428683,2.6192741976410616,2.6154091522621457,2.624749678594526,2.6224950687901583,2.6215288074454293,2.617019587836694,2.6144428909174167,2.6012373192061204,2.5857771376904566,2.5654856494511478,2.523936411627801,2.4672490794037003,2.3980003496981226,2.3397025818994734,2.259824977401877,2.1854228538577445,2.0952384616830386,2.000866937014507,1.900375757162692,1.7995624901959673,1.711632707825629,1.6404514554305933,1.6046997856756207,1.6127519635483623,1.6758810380706564,1.7808814375312068,1.932906555768568,2.1606221460097004,2.4572643788415007,2.7384464301576372,2.9719595884671435,3.139122801105259,3.2399360680719838,3.302098881249549,3.3204578467993997,3.3188474112248514
1745596783.6654453,3.292436267802259,3.2428348521061707,3.1980647431337275,3.140089062449988,3.0753495523531456,3.0199505685886834,2.9661620203987695,2.931376611988526,2.894014506659005,2.8627720565127674,2.8328179548261687,2.7915908041177318,2.751007827639114,2.712679460964864,2.669841874681879,2.6443969926040154,2.6105778455385007,2.5925409671035595,2.57289365309407,2.56355312676169,2.557755558693316,2.5503475550503936,2.546160422556568,2.5416512029478326,2.5368198962241877,2.5342431993049104,2.5300560668110847,2.526191021432169,2.5236143245128915,2.5120191883761436,2.500101965124486,2.5023565749288537,2.5033228362735827,2.5065437074226793,2.5084762301121373,2.5052553589630406,2.5052553589630406,2.4975252682052087,2.4907614387921058,2.4939823099412024,2.491405613021925,2.488828916102648,2.4926939614815637,2.4907614387921058,2.48689639341319,2.483031348034274,2.481098825344816,2.479810476885177,2.480776738229906,2.4785221284255385,2.4852859578386415,2.47691169285099,2.466604905173881,2.451144723658217,2.4575864659564104,2.445347155589843,2.445669242704753,2.4450250684749335,2.449212200968759,2.4421262844407465,2.442770458670566,2.4372949777171016,2.436972890602192,2.4218347962014377,2.4211906219716184,2.4192580992821604,2.4170034894777928,2.4144267925585154,2.40991757294978,2.4057304404559545,2.4012212208472192,2.4005770466174,2.3983224368130323,2.3915586073999293,2.3905923460552003,2.3835064295271877,2.3815739068377297,2.3809297326079104,2.373843816079898,2.3609603314835113,2.3577394603344146,2.351619805151131,2.345822237082757,2.3426013659336604,2.337125884980196,2.3261749230732676,2.310392654442694,2.3107147415576037,2.299119605420856,2.2888128177437466,2.280760639871005,2.273996810457902,2.2698096779640764,2.2685213295044377,2.261435412976425,2.248229841265129,2.239533489162568,2.22793835302582,2.222140784957446,2.217309478233801
1745596783.8629792,2.2140886070847046,2.2057143420970533,2.2005609482584987,2.1999167740286794,2.196373815764673,2.1947633801901247,2.2018492967181373,2.198306338454131,2.2015272096032277,2.205070167867234,2.201205122488318,2.1986284255690407,2.1979842513392214,2.197340077109402,2.2086131261312403,2.2150548684294336,2.215699042659253,2.2314813112898264,2.2417880989669356,2.246297318575671,2.2533832351036835,2.2649783712404314,2.276895594492089,2.2975091698463075,2.3110368286725134,2.3281074457627255,2.343889714393299,2.35258606649586,2.365147463977337,2.375454251654446,2.39091443317011,2.404120004881406,2.4218347962014377,2.445347155589843,2.458874814416049,2.4727245603571646,2.481098825344816,2.5023565749288537,2.512663362605963,2.5323106766154524,2.5493812937056646,2.566129823680967,2.5812679180817213,2.5915747057588305,2.598016448057024,2.5993047965166625,2.6047802774701267,2.6096115841937717,2.6221729816752486,2.625715939939255,2.635056466271635,2.6395656858803704,2.645685341063654,2.648584125097841,2.64955038644257,2.6585688256600406,2.6595350870047696,2.6637222194985952,2.667587264877511,2.6701639617967885,2.665976829302963,2.666943090647692,2.6637222194985952,2.66887561333715,2.6624338710389566,2.664688480843324,2.669841874681879,2.671452310256427,2.671774397371337,2.6720964844862465,2.670486048911698,2.6691977004520595,2.6672651777626015,2.6643663937284146,2.6711302231415175,2.669841874681879,2.6720964844862465,2.674673181405524,2.6749952685204335,2.665976829302963,2.6588909127749503,2.66887561333715,2.6672651777626015,2.6637222194985952,2.667587264877511,2.6605013483494986,2.6608234354644082,2.656314215855673,2.653415431821486,2.6518049962469377,2.6472957766382024,2.6463295152934734,2.6472957766382024,2.6357006405014545,2.635378553386545,2.6289368110883515,2.6263601141690742,2.6253938528243452,2.6234613301348872,2.6244275914796162
1745596784.0596673,2.6231392430199776,2.6144428909174167,2.616053326491965,2.6086453228490427,2.603491929010488,2.6070348872744944,2.6086453228490427,2.6096115841937717,2.6118661939981394,2.6096115841937717,2.6076790615043137,2.603491929010488,2.5983385351719335,2.597050186712295,2.593829315563198,2.5944734897930175,2.5944734897930175,2.5915747057588305,2.590930531529011,2.5889980088395532,2.586421311920276,2.5838446150009986,2.5822341794264503,2.5780470469326247,2.5761145242431667,2.5751482628984377,2.573859914438799,2.5722494788642507,2.5674181721406057,2.5638752138765994,2.564197300991509,2.5600101684976835,2.5722494788642507,2.56355312676169,2.5722494788642507,2.5629089525318705,2.5693506948300637,2.567096085025696,2.5638752138765994,2.5590439071529545,2.568062346370425,2.567096085025696,2.5693506948300637,2.5654856494511478,2.567096085025696,2.5629089525318705,2.5609764298424125,2.559365994267864,2.5571113844634965,2.5571113844634965,2.5551788617740385,2.552924251969671,2.5503475550503936,2.545194161211839,2.5426174642925616,2.5429395514074713,2.5419732900627423,2.5429395514074713,2.5387524189136457,2.539396593143465,2.5348873735347297,2.540362854488194,2.538430331798736,2.541329115832923,2.5361757219943684,2.5381082446838263,2.5390745060285553,2.5348873735347297,2.5406849416031037,2.5397186802583747,2.538430331798736,2.537464070454007,2.5406849416031037,2.5464825096714776,2.5445499869820196,2.547126683901297,2.542295377177652,2.5400407673732843,2.538430331798736,2.5358536348794587,2.5300560668110847,2.5281235441216268,2.521359714708524,2.525868934317259,2.519427192019066,2.518138843559427,2.5062216203077696,2.4997798780095764,2.4946264841710217,2.4891510032175574,2.4891510032175574,2.481742999574635,2.48689639341319,2.484963870723732,2.479166302655358,2.477877954195719,2.4772337799659,2.483675522264093,2.483031348034274,2.488506828987738
1745596784.262495,2.4939823099412024,2.49623691974557,2.4959148326306604,2.4975252682052087,2.484641783608822,2.4794883897702675,2.4730466474720743,2.4698257763229776,2.4662828180589713,2.4672490794037003,2.465638643829152,2.4633840340247843,2.4653165567142423,2.469503689208068,2.469503689208068,2.480776738229906,2.480776738229906,2.4968810939753894,2.4978473553201184,2.514595885295421,2.5071878816524986,2.51556214664015,2.518138843559427,2.523936411627801,2.5226480631681625,2.52522476008744,2.5290898054663558,2.5310223281558137,2.5329548508452717,2.5348873735347297,2.5361757219943684,2.5377861575689167,2.5400407673732843,2.5426174642925616,2.541329115832923,2.5400407673732843,2.541329115832923,2.5390745060285553,2.5358536348794587,2.5368198962241877,2.5426174642925616,2.5429395514074713,2.5429395514074713,2.5474487710162066,2.5397186802583747,2.5371419833390974,2.5329548508452717,2.53456528641982,2.5265131085470784,2.518138843559427,2.5026786620437633,2.4711141247826163,2.435040367912734,2.38125181972282,2.317156483855797,2.245331057230942,2.179303198674461,2.1000697684066836,2.0098853762319777,1.9122929804143496,1.8156668459414504,1.7113106207107194,1.6179053573869169,1.539316101348959,1.502920257364167,1.51902461310965,1.5885954299301375,1.7006817459187005,1.861081129143713,2.0965268101426773,2.391880694514839,2.672418571601156,2.899489987612469,3.0621439806418493,3.1722977739409544,3.240580242301803,3.2553962495876476,3.2450894619105384,3.221577102522133,3.182282474503154,3.134291494381614,3.0763158136978745,3.0263923108868767,2.9738921111566015,2.9336312217928935,2.8924040710844565,2.852787355950568,2.823155341378879,2.7919128912326414,2.758737918396946,2.721375813067425,2.6843357948528137,2.6460074281785637,2.6031698418955784,2.5761145242431667,2.549059206590755,2.530700241040904,2.5187830177892465,2.509764578571776,2.510730839916505
1745596784.4599965,2.508798317227047,2.5075099687674083,2.503967010503402,2.499135703779757,2.503967010503402,2.5026786620437633,2.5026786620437633,2.5026786620437633,2.5033228362735827,2.5013903135841247,2.4968810939753894,2.4910835259070154,2.48657430629828,2.4785221284255385,2.478844215540448,2.4823871738044545,2.482709260919364,2.4823871738044545,2.479166302655358,2.4749791701615322,2.472402473242255,2.4688595149782486,2.4662828180589713,2.4643502953695133,2.4678932536335196,2.4707920376677066,2.4678932536335196,2.46757116651861,2.464672382484423,2.4595189886458684,2.4582306401862297,2.4575864659564104,2.4585527273011394,2.4556539432669524,2.4543655948073138,2.450178462313488,2.451144723658217,2.4401937617512885,2.4430925457854755,2.439549587521469,2.4347182807978243,2.4337520194530953,2.4337520194530953,2.434074106568005,2.426344015810173,2.4218347962014377,2.4189360121672507,2.417647663707612,2.413782618328696,2.411205921409419,2.404120004881406,2.408307137375232,2.402187482191948,2.39091443317011,2.3963899141235743,2.388015649135923,2.3922027816297486,2.382218081067549,2.3883377362508327,2.378353035688633,2.375776338769356,2.3674020737817045,2.35258606649586,2.3570952861045953,2.349687282461673,2.3480768468871247,2.3387363205547445,2.338414233439835,2.325852835958358,2.3203773550048936,2.313291438476881,2.3058834348339587,2.299763779650675,2.2955766471568495,2.290423253318295,2.2849477723648306,2.2833373367902823,2.2775397687219083,2.274963071802631,2.2665888068149798,2.267232981044799,2.2688434166193474,2.2656225454702508,2.269165503734257,2.2707759393088054,2.268199242389528,2.2630458485509735,2.263367935665883,2.2688434166193474,2.272064287768444,2.2736747233429924,2.2785060300666373,2.283659423905192,2.2868802950542886,2.2859140337095596,2.298797518305946,2.297187082731398,2.315223961166339,2.3245644874987192,2.3339050138310995
1745596784.6661775,2.3432455401634797,2.359349895908963,2.37191129339044,2.3838285166420974,2.398644523927942,2.410883834294509,2.4250556673505343,2.439871674636379,2.4582306401862297,2.474334995931713,2.4907614387921058,2.5062216203077696,2.520393453363795,2.5329548508452717,2.5629089525318705,2.566129823680967,2.579657482507173,2.597050186712295,2.6067128001595847,2.6279705497436225,2.632479769352358,2.6395656858803704,2.648584125097841,2.6482620379829314,2.6634001323836856,2.6691977004520595,2.6691977004520595,2.67821613966953,2.680148662358988,2.6824032721633557,2.6885229273466393,2.6885229273466393,2.692710059840465,2.68787875311682,2.6930321469553746,2.6988297150237486,2.6981855407939292,2.7001180634833872,2.692710059840465,2.6997959763684776,2.6991518021386582,2.6997959763684776,2.702050586172845,2.6930321469553746,2.6991518021386582,2.6978634536790196,2.6978634536790196,2.6949646696448326,2.696575105219381,2.7026947604026645,2.6988297150237486,2.6972192794492003,2.6933542340702843,2.691743798495736,2.6891671015764587,2.6875566660019103,2.689811275806278,2.6923879727255553,2.691743798495736,2.6923879727255553,2.695608843874652,2.6901333629211877,2.6894891886913683,2.6833695335080847,2.677249878324801,2.6795044881291687,2.6836916206229944,2.6817590979335364,2.6778940525546204,2.672418571601156,2.671452310256427,2.661145522579318,2.6569583900854923,2.6579246514302213,2.655347954510944,2.6511608220171183,2.6511608220171183,2.6511608220171183,2.6530933447065763,2.641820295684738,2.6395656858803704,2.637311076076003,2.633123943582177,2.633123943582177,2.632157682237448,2.6279705497436225,2.6253938528243452,2.6234613301348872,2.6215288074454293,2.6186300234112423,2.617019587836694,2.616053326491965,2.615087065147236,2.6147649780323263,2.6118661939981394,2.6089674099639524,2.6057465388148557,2.6051023645850364,2.603491929010488,2.603491929010488
1745596784.8640313,2.6022035805508494,2.598660622286843,2.5954397511377465,2.594151402678108,2.592863054218469,2.595117664022837,2.598660622286843,2.602525667665759,2.6060686259297654,2.6080011486192234,2.606390713044675,2.6038140161253978,2.6022035805508494,2.596083925367566,2.5983385351719335,2.599626883631572,2.6038140161253978,2.6041361032403074,2.6051023645850364,2.6038140161253978,2.599626883631572,2.6022035805508494,2.6031698418955784,2.6086453228490427,2.6031698418955784,2.6099336713086814,2.608323235734133,2.605424451699946,2.604458190355217,2.596083925367566,2.5935072284482885,2.5925409671035595,2.593829315563198,2.5944734897930175,2.5944734897930175,2.5925409671035595,2.5896421830693725,2.5889980088395532,2.5870654861500952,2.5867433990351856,2.5877096603799146,2.588353834609734,2.5857771376904566,2.5832004407711793,2.5803016567369923,2.5790133082773536,2.5770807855878957,2.5780470469326247,2.577724959817715,2.5780470469326247,2.576758698472986,2.5770807855878957,2.5732157402089797,2.5687065206002444,2.5693506948300637,2.5693506948300637,2.562586865416961,2.5751482628984377,2.5751482628984377,2.5732157402089797,2.574826175783528,2.5716053046344314,2.568062346370425,2.5629089525318705,2.5674181721406057,2.5706390432897024,2.569994869059883,2.566129823680967,2.557755558693316,2.556467210233677,2.554534687544219,2.5538905133144,2.5493812937056646,2.5571113844634965,2.5629089525318705,2.5658077365660574,2.5638752138765994,2.555500948888948,2.5542126004293095,2.550025467935484,2.5419732900627423,2.5342431993049104,2.5400407673732843,2.531666502385633,2.5361757219943684,2.531666502385633,2.524258498742711,2.51556214664015,2.5084762301121373,2.503000749158673,2.4926939614815637,2.4975252682052087,2.4946264841710217,2.4897951774473768,2.4910835259070154,2.488828916102648,2.4988136166648474,2.499135703779757,2.4988136166648474,2.5149179724103305
1745596785.0600164,2.5158842337550595,2.5187830177892465,2.5187830177892465,2.510730839916505,2.502034487813944,2.498169442435028,2.493338135711383,2.488828916102648,2.4862522191833705,2.484641783608822,2.478844215540448,2.4717582990124356,2.4727245603571646,2.473368734586984,2.487862654757919,2.5026786620437633,2.514595885295421,2.530700241040904,2.5281235441216268,2.530700241040904,2.5303781539259944,2.5348873735347297,2.5368198962241877,2.542295377177652,2.5455162483267486,2.548092945246026,2.550991729280213,2.552602164854761,2.5497033808205742,2.547126683901297,2.5464825096714776,2.5477708581311163,2.5503475550503936,2.5600101684976835,2.5522800777398515,2.557755558693316,2.5654856494511478,2.5648414752213284,2.5658077365660574,2.569994869059883,2.5683844334853347,2.574826175783528,2.573859914438799,2.5770807855878957,2.5638752138765994,2.561620604072232,2.5561451231187675,2.557433471578406,2.551635903510032,2.5323106766154524,2.4997798780095764,2.4533993334625848,2.392846955859568,2.336481710750377,2.2640121098957025,2.175438153295545,2.083321238431381,1.9912043235672172,1.876541310659377,1.7725071725435555,1.6678288601979148,1.570880638610106,1.4974447764107026,1.4716778072179295,1.5032423444790766,1.5924604753090534,1.7216174083878286,1.9093941963801626,2.1673859754228033,2.458874814416049,2.698507627908839,2.9011004231870174,3.0312236176105216,3.1185092257510405,3.1632793347234838,3.190978826605715,3.179383690468967,3.161990986263845,3.1259172293939628,3.0924201694433577,3.046361712011276,3.019306394358864,2.9774350694206078,2.947480967734009,2.9123734722088557,2.8846739803266246,2.843124742503278,2.815425250621047,2.7706551416486036,2.746498608030379,2.7065598057815805,2.6759615298651624,2.6402098601101898,2.6163754136068746,2.5954397511377465,2.5754703500133473,2.5493812937056646,2.5497033808205742,2.5406849416031037,2.530700241040904
1745596785.2659512,2.5290898054663558,2.5319885895005427,2.5342431993049104,2.5281235441216268,2.5274793698918074,2.5226480631681625,2.518138843559427,2.518460930674337,2.51524005952524,2.5094424914568663,2.4984915295499377,2.501068226469215,2.494304397056112,2.4926939614815637,2.4939823099412024,2.4965590068604797,2.500101965124486,2.4994577908946667,2.4907614387921058,2.4926939614815637,2.4881847418728285,2.483997609379003,2.4804546511149965,2.483997609379003,2.4872184805280995,2.4881847418728285,2.48689639341319,2.48657430629828,2.4814209124597255,2.4775558670808095,2.4759454315062612,2.4717582990124356,2.469503689208068,2.4669269922887906,2.4701478634378873,2.4720803861273453,2.473368734586984,2.4765896057360806,2.4785221284255385,2.479166302655358,2.4772337799659,2.475301257276442,2.4736908217018936,2.4633840340247843,2.466604905173881,2.4624177726800554,2.4585527273011394,2.4566202046116814,2.450500549428398,2.444702981360024,2.4385833261767402,2.436972890602192,2.4308532354189083,2.4401937617512885,2.442448371555656,2.441482110210927,2.4376170648320112,2.4372949777171016,2.42924279984436,2.4314974096487276,2.4211906219716184,2.4182918379374314,2.413138444098877,2.4008991337323096,2.3989666110428516,2.3905923460552003,2.38125181972282,2.372877554735169,2.3722333805053495,2.3609603314835113,2.347754759772215,2.339380494784564,2.334549188060919,2.3235982261539903,2.331650404026732,2.3310062297969125,2.327463271532906,2.3239203132689,2.319089006545255,2.308460131753236,2.30459508637432,2.3023404765699524,2.3062055219488684,2.3068496961786877,2.3136135255917907,2.316190222511068,2.320055267889984,2.322954051924171,2.3235982261539903,2.3255307488434482,2.3290737071074545,2.332294578256551,2.3358375365205575,2.3348712751758285,2.338092146324925,2.336159623635467,2.3538744149554987,2.3638591155176982,2.3867273006762844,2.401543307962129
1745596785.4647295,2.4115280085243285,2.4202243606268894,2.4237673188908957,2.449212200968759,2.4582306401862297,2.4707920376677066,2.487540567643009,2.5110529270314146,2.519427192019066,2.5329548508452717,2.5474487710162066,2.5590439071529545,2.5732157402089797,2.5886759217246436,2.6038140161253978,2.619918371870881,2.640854034340009,2.644719079718925,2.6521270833618473,2.6579246514302213,2.6634001323836856,2.673384832945885,2.6804707494738977,2.694642582529923,2.6943204954150133,2.7065598057815805,2.710102764045587,2.707848154241219,2.7142898965394124,2.714611983654322,2.7159003321139608,2.7178328548034187,2.720409551722696,2.722342074412154,2.724274597101612,2.7326488620892633,2.7274954682507087,2.7294279909401666,2.7284617295954376,2.7239525099867024,2.7323267749743536,2.7332930363190826,2.7303942522848956,2.7297500780550763,2.7294279909401666,2.732970949204173,2.732970949204173,2.7274954682507087,2.73586973323836,2.734903471893631,2.730072165169986,2.7374801688129082,2.7345813847787213,2.7326488620892633,2.7284617295954376,2.7278175553656183,2.7342592976638116,2.7210537259525154,2.7255629455612507,2.723308335756883,2.721375813067425,2.7197653774928767,2.7187991161481477,2.717510767688509,2.7181549419183284,2.7197653774928767,2.7187991161481477,2.709780676930677,2.7152561578841414,2.711069025390316,2.7007622377132066,2.710746938275406,2.7055935444368515,2.705271457321942,2.7007622377132066,2.6981855407939292,2.7055935444368515,2.6978634536790196,2.7001180634833872,2.696575105219381,2.6972192794492003,2.696575105219381,2.6962530181044713,2.6972192794492003,2.6923879727255553,2.6872345788870007,2.675317355635343,2.676283616980072,2.6814370108186267,2.6853020561975427,2.683047446393175,2.6904554500360973,2.6901333629211877,2.6872345788870007,2.6856241433124524,2.6798265752440784,2.6766057040949818,2.673384832945885,2.675317355635343,2.6775719654397108
1745596785.6594694,2.6785382267844398,2.67821613966953,2.6766057040949818,2.675317355635343,2.673706920060795,2.672740658716066,2.6711302231415175,2.6769277912098914,2.672418571601156,2.6817590979335364,2.6740290071757045,2.683047446393175,2.675317355635343,2.6740290071757045,2.6804707494738977,2.6775719654397108,2.6775719654397108,2.6775719654397108,2.669841874681879,2.665654742188053,2.6624338710389566,2.664044306613505,2.664044306613505,2.665010567958234,2.66855352622224,2.669519787566969,2.667587264877511,2.6691977004520595,2.6614676096942276,2.6711302231415175,2.666621003532782,2.6662989164178725,2.664688480843324,2.664044306613505,2.6547037802811246,2.6595350870047696,2.6566363029705826,2.658246738545131,2.651482909132028,2.6521270833618473,2.6537375189363956,2.6559921287407633,2.6585688256600406,2.6518049962469377,2.6634001323836856,2.6566363029705826,2.652449170476757,2.6550258673960343,2.6540596060513053,2.6527712575916667,2.64955038644257,2.6479399508680217,2.6392435987654608,2.6357006405014545,2.636988988961093,2.6357006405014545,2.635056466271635,2.636022727616364,2.6260380270541646,2.6186300234112423,2.6080011486192234,2.598660622286843,2.5925409671035595,2.5809458309668116,2.5880317474948242,2.594795576907927,2.598016448057024,2.6031698418955784,2.6028477547806688,2.607356974389404,2.6067128001595847,2.6192741976410616,2.6157312393770553,2.6125103682279587,2.6067128001595847,2.5993047965166625,2.589964270184282,2.583522527886089,2.574826175783528,2.573859914438799,2.5735378273238894,2.5764366113580763,2.5809458309668116,2.5880317474948242,2.59221887998865,2.596083925367566,2.5915747057588305,2.5964060124824755,2.5925409671035595,2.6089674099639524,2.6031698418955784,2.6012373192061204,2.6012373192061204,2.6012373192061204,2.599626883631572,2.5993047965166625,2.60155940632103,2.608323235734133,2.6147649780323263,2.6192741976410616
1745596785.8675492,2.6231392430199776,2.6212067203305196,2.617985849181423,2.6176637620665133,2.6166975007217843,2.6176637620665133,2.6183079362963326,2.6195962847559713,2.6221729816752486,2.6202404589857906,2.6176637620665133,2.613154542457778,2.608323235734133,2.6051023645850364,2.6060686259297654,2.6028477547806688,2.6028477547806688,2.596083925367566,2.5964060124824755,2.589964270184282,2.5774028727028053,2.558399732923135,2.5290898054663558,2.487540567643009,2.4343961936829146,2.3777088614588138,2.3071717832935974,2.227294178796001,2.147416574298404,2.0559438336640596,1.9618943961104378,1.8646240874077193,1.7757280436926521,1.6981050489994232,1.6381968456262257,1.597613869147608,1.599546391837066,1.6439944136945996,1.7357892414438538,1.8855597498768475,2.100713942636503,2.3445338886231184,2.5619426911871415,2.732004687859444,2.858584924018942,2.9490914033085573,3.002235777268652,3.0428187537472695,3.0486163218156435,3.044107102206908,3.025103962427238,2.999336993234465,2.973570024041692,2.9536006229172926,2.9371741800569,2.913983907783404,2.904321294336114,2.8791984993731603,2.8605174467084,2.8312075192516204,2.8035080273693893,2.7774189710617065,2.7535845245583914,2.7355476461234502,2.7075260671263095,2.6766057040949818,2.6463295152934734,2.617019587836694,2.594795576907927,2.5716053046344314,2.551957990624942,2.5371419833390974,2.523292237397982,2.5139517110656016,2.5091204043419566,2.5042890976183116,2.4975252682052087,2.48657430629828,2.482709260919364,2.479810476885177,2.4804546511149965,2.481742999574635,2.483675522264093,2.483997609379003,2.4804546511149965,2.476267518621171,2.4701478634378873,2.4682153407484293,2.4678932536335196,2.4643502953695133,2.4678932536335196,2.4672490794037003,2.4624177726800554,2.4595189886458684,2.454043507692404,2.44856802673894,2.444380894245114,2.445669242704753,2.439871674636379,2.4382612390618306
1745596786.0611563,2.4363287163723726,2.4334299323381856,2.42924279984436,2.425377754465444,2.424411493120715,2.4231231446610764,2.4289207127294503,2.424411493120715,2.4199022735119797,2.414748879673425,2.408307137375232,2.4008991337323096,2.3922027816297486,2.394779478549026,2.393813217204297,2.3960678270086646,2.3925248687446583,2.3925248687446583,2.386083126446465,2.380285558378091,2.3751321645395365,2.372877554735169,2.370622944930801,2.369012509356253,2.369978770700982,2.368046248011524,2.365147463977337,2.355484850530047,2.3577394603344146,2.3483989340020344,2.3503314566914923,2.3519418922660407,2.349687282461673,2.3451780628529377,2.339380494784564,2.3300399684521835,2.321021529234713,2.308460131753236,2.3078159575234167,2.303628825029591,2.300730040995404,2.299119605420856,2.29493247292703,2.2897790790884756,2.2849477723648306,2.278828117181547,2.277861855836818,2.272064287768444,2.26626671970007,2.263367935665883,2.2707759393088054,2.269165503734257,2.2649783712404314,2.2601470645167865,2.257892454712419,2.257892454712419,2.258858716057148,2.262723761436064,2.264334197010612,2.26626671970007,2.2685213295044377,2.2707759393088054,2.274963071802631,2.2804385527560953,2.2849477723648306,2.293322037352482,2.302018389455043,2.3126472642470617,2.3136135255917907,2.3194110936601646,2.327463271532906,2.335193362290738,2.338414233439835,2.3625707670580596,2.3751321645395365,2.3893039975955617,2.4008991337323096,2.4199022735119797,2.4250556673505343,2.435040367912734,2.4459913298196625,2.4575864659564104,2.4698257763229776,2.4852859578386415,2.500101965124486,2.5123412754910532,2.523936411627801,2.5400407673732843,2.541329115832923,2.5506696421653032,2.564197300991509,2.5732157402089797,2.5812679180817213,2.586421311920276,2.588353834609734,2.5886759217246436,2.59221887998865,2.6018814934359398,2.603491929010488,2.6096115841937717
1745596786.258791,2.6128324553428683,2.616053326491965,2.6183079362963326,2.6202404589857906,2.621850894560339,2.6253938528243452,2.635056466271635,2.637955250305822,2.634090204926906,2.6337681178119965,2.6308693337778095,2.6299030724330805,2.629258898203261,2.629580985318171,2.6308693337778095,2.6318355951225385,2.633123943582177,2.6299030724330805,2.627648462628713,2.623783417249797,2.6195962847559713,2.617985849181423,2.6157312393770553,2.617019587836694,2.6186300234112423,2.617985849181423,2.6137987166875973,2.6163754136068746,2.6195962847559713,2.6195962847559713,2.6202404589857906,2.612188281113049,2.622817155905068,2.6224950687901583,2.62088463321561,2.6154091522621457,2.6089674099639524,2.600915232091211,2.6070348872744944,2.605424451699946,2.604458190355217,2.6022035805508494,2.598660622286843,2.595761838252656,2.589964270184282,2.5841667021159083,2.578691221162444,2.5799795696220826,2.578691221162444,2.575792437128257,2.5725715659791604,2.5706390432897024,2.5693506948300637,2.5667739979107864,2.5722494788642507,2.5732157402089797,2.5722494788642507,2.5674181721406057,2.571927391749341,2.566129823680967,2.5571113844634965,2.5506696421653032,2.547126683901297,2.5448720740969293,2.5484150323609356,2.554534687544219,2.560654342727503,2.558721820038045,2.564197300991509,2.5609764298424125,2.556789297348587,2.5551788617740385,2.5532463390845805,2.552924251969671,2.5497033808205742,2.548092945246026,2.546160422556568,2.5400407673732843,2.5406849416031037,2.5377861575689167,2.5368198962241877,2.5348873735347297,2.53456528641982,2.5361757219943684,2.5419732900627423,2.5400407673732843,2.5332769379601814,2.528767718351446,2.5300560668110847,2.5313444152707234,2.5339211121900007,2.5332769379601814,2.526835195661988,2.5284456312365364,2.5303781539259944,2.525868934317259,2.5245805858576205,2.524258498742711,2.525868934317259,2.527801457006717
1745596786.4671874,2.5300560668110847,2.5303781539259944,2.5313444152707234,2.5313444152707234,2.5284456312365364,2.5332769379601814,2.5348873735347297,2.537464070454007,2.539396593143465,2.539396593143465,2.5358536348794587,2.531666502385633,2.526835195661988,2.5245805858576205,2.5226480631681625,2.519427192019066,2.5187830177892465,2.518138843559427,2.5120191883761436,2.507832055882318,2.5013903135841247,2.4965590068604797,2.4910835259070154,2.485930132068461,2.4823871738044545,2.4794883897702675,2.4772337799659,2.47691169285099,2.4740129088168032,2.4736908217018936,2.475301257276442,2.477877954195719,2.483031348034274,2.48657430629828,2.487862654757919,2.487540567643009,2.481742999574635,2.4775558670808095,2.472402473242255,2.4691816020931583,2.4698257763229776,2.4691816020931583,2.4711141247826163,2.4701478634378873,2.468537427863339,2.466604905173881,2.4759454315062612,2.483031348034274,2.485608044953551,2.4997798780095764,2.502034487813944,2.5046111847332213,2.5036449233884923,2.5026786620437633,2.503967010503402,2.506865794537589,2.510730839916505,2.5149179724103305,2.521359714708524,2.524258498742711,2.526835195661988,2.5271572827768978,2.5284456312365364,2.530700241040904,2.538430331798736,2.530700241040904,2.5406849416031037,2.5387524189136457,2.5400407673732843,2.5377861575689167,2.5358536348794587,2.5339211121900007,2.531666502385633,2.530700241040904,2.530700241040904,2.532632763730362,2.532632763730362,2.5274793698918074,2.5294118925812654,2.526191021432169,2.518138843559427,2.503000749158673,2.479810476885177,2.4459913298196625,2.4002549595024902,2.3403467561292928,2.2794722914113663,2.210867735935608,2.1403306577703916,2.0562659207789693,1.9676919641788118,1.870743742591003,1.7721850854286458,1.674270602496108,1.5876291685854085,1.5216013100289274,1.5051748671685345,1.5428590596129652,1.6298225806385744,1.7486727260402404
1745596786.664007,1.914869677333627,2.157079187745694,2.4411600230960175,2.7017284990579356,2.9088305139448494,3.053769715654198,3.1481412403227296,3.1893683910311665,3.2038623112021014,3.1922671750653535,3.161990986263845,3.121730096900137,3.0734170296636876,3.02317143973778,2.9738921111566015,2.9259011310350616,2.8817751962924376,2.8366830002050847,2.803830114484299,2.7709772287635133,2.7342592976638116,2.695608843874652,2.6559921287407633,2.615087065147236,2.5780470469326247,2.5464825096714776,2.518460930674337,2.4968810939753894,2.483031348034274,2.470469950552797,2.462739859794965,2.456942291726591,2.45790855307132,2.451466810773127,2.452110985002946,2.449212200968759,2.445669242704753,2.441804197325837,2.436006629257463,2.435040367912734,2.434074106568005,2.4353624550276436,2.431175322533818,2.4289207127294503,2.4237673188908957,2.4189360121672507,2.413782618328696,2.416681402362883,2.414748879673425,2.4211906219716184,2.4163593152479734,2.4173255765927024,2.414748879673425,2.4115280085243285,2.4105617471795995,2.4095954858348705,2.411205921409419,2.4173255765927024,2.4115280085243285,2.410883834294509,2.408307137375232,2.406374614685774,2.405408353341045,2.403475830651587,2.4002549595024902,2.4002549595024902,2.3983224368130323,2.4012212208472192,2.4008991337323096,2.397678262583213,2.3931690429744776,2.3873714749061037,2.376420512999175,2.369978770700982,2.369656683586072,2.365147463977337,2.37158920627553,2.380285558378091,2.37158920627553,2.3683683351264335,2.366113725322066,2.3635370284027886,2.3580615474493243,2.3532302407256793,2.3480768468871247,2.3432455401634797,2.338092146324925,2.3442118015082087,2.3319724911416415,2.334227100946009,2.330362055567093,2.327463271532906,2.3232761390390806,2.3174785709707066,2.3097484802128747,2.299763779650675,2.292033688892843,2.290101166203385,2.2772176816069987,2.2723863748833537
1745596786.8600261,2.2669108939298894,2.260469151631696,2.2517727995291352,2.241466011852026,2.22793835302582,2.2305150499450974,2.222140784957446,2.2218186978425365,2.2256837432214525,2.221174523612717,2.2160211297741625,2.2105456488206983,2.2073247776716016,2.2057143420970533,2.2073247776716016,2.2095793874759693,2.210867735935608,2.217309478233801,2.2144106941996142,2.216343216889072,2.219242000923259,2.224073307646904,2.227294178796001,2.2314813112898264,2.2369567922432907,2.2421101860818453,2.2488740154949483,2.2572482804825995,2.263367935665883,2.2733526362280827,2.28559194659465,2.297187082731398,2.306527609063778,2.3235982261539903,2.338092146324925,2.351619805151131,2.363214941287879,2.374487990309717,2.3873714749061037,2.4028316564217675,2.4182918379374314,2.4382612390618306,2.4553318561520427,2.4736908217018936,2.4897951774473768,2.5062216203077696,2.521359714708524,2.5339211121900007,2.551957990624942,2.570961130404612,2.585455050575547,2.599626883631572,2.6125103682279587,2.6215288074454293,2.6263601141690742,2.632157682237448,2.6395656858803704,2.6434307312592864,2.654381693166215,2.6569583900854923,2.658246738545131,2.6576025643153116,2.6595350870047696,2.6637222194985952,2.6682314391073305,2.671774397371337,2.6769277912098914,2.6775719654397108,2.6730627458309755,2.680148662358988,2.6795044881291687,2.6814370108186267,2.6795044881291687,2.6785382267844398,2.6766057040949818,2.673706920060795,2.670486048911698,2.6627559581538662,2.670808136026608,2.669841874681879,2.6711302231415175,2.6730627458309755,2.6740290071757045,2.676283616980072,2.6778940525546204,2.6872345788870007,2.6807928365888074,2.673384832945885,2.673706920060795,2.6862683175422717,2.681114923703717,2.682081185048446,2.6817590979335364,2.680148662358988,2.6778940525546204,2.6778940525546204,2.676283616980072,2.671452310256427,2.674351094290614,2.675639442750253
1745596787.0674903,2.677249878324801,2.673706920060795,2.669841874681879,2.665976829302963,2.664044306613505,2.663078045268776,2.664044306613505,2.6627559581538662,2.6637222194985952,2.6617896968091372,2.6501945606723893,2.651482909132028,2.6479399508680217,2.643752818374196,2.641820295684738,2.6395656858803704,2.635378553386545,2.632157682237448,2.63022515954799,2.625715939939255,2.6244275914796162,2.6231392430199776,2.6231392430199776,2.6241055043647066,2.6250717657094356,2.6263601141690742,2.623783417249797,2.628292636858532,2.6279705497436225,2.624749678594526,2.6234613301348872,2.6192741976410616,2.617985849181423,2.6147649780323263,2.61122201976832,2.6163754136068746,2.61122201976832,2.6108999326534104,2.6086453228490427,2.607356974389404,2.6080011486192234,2.6080011486192234,2.6076790615043137,2.6047802774701267,2.6051023645850364,2.605424451699946,2.6108999326534104,2.612188281113049,2.6060686259297654,2.6070348872744944,2.6022035805508494,2.610255758423591,2.603491929010488,2.6028477547806688,2.6018814934359398,2.6018814934359398,2.608323235734133,2.6115441068832297,2.6125103682279587,2.6108999326534104,2.6089674099639524,2.6067128001595847,2.6038140161253978,2.599948970746482,2.597050186712295,2.593185141333379,2.591252618643921,2.5880317474948242,2.592863054218469,2.597050186712295,2.593829315563198,2.590286357299192,2.585455050575547,2.579657482507173,2.5780470469326247,2.5693506948300637,2.561620604072232,2.549059206590755,2.54422789986711,2.5371419833390974,2.530700241040904,2.523936411627801,2.520393453363795,2.5187830177892465,2.517172582214698,2.5168504950997885,2.517172582214698,2.512663362605963,2.5197492791339755,2.526191021432169,2.530700241040904,2.5348873735347297,2.537464070454007,2.538430331798736,2.5390745060285553,2.537464070454007,2.53456528641982,2.5274793698918074,2.528767718351446,2.5265131085470784
1745596787.267169,2.526191021432169,2.524258498742711,2.523292237397982,2.526835195661988,2.529733979696175,2.5339211121900007,2.539396593143465,2.5455162483267486,2.5487371194758452,2.5522800777398515,2.557433471578406,2.558399732923135,2.560332255612593,2.562586865416961,2.5667739979107864,2.5722494788642507,2.5774028727028053,2.580623743851902,2.581590005196631,2.580623743851902,2.583522527886089,2.5838446150009986,2.583522527886089,2.5822341794264503,2.5809458309668116,2.579657482507173,2.578691221162444,2.5783691340475343,2.5732157402089797,2.57289365309407,2.5751482628984377,2.5761145242431667,2.577724959817715,2.5751482628984377,2.5677402592555154,2.569994869059883,2.569028607715154,2.574826175783528,2.571927391749341,2.5687065206002444,2.555500948888948,2.5323106766154524,2.4930160485964734,2.439549587521469,2.3770646872289944,2.312325177132152,2.242432273196755,2.165775539848255,2.073980712099001,1.980897535890108,1.877507572004106,1.7821697859908454,1.6926295680459589,1.6156507475825492,1.569914377265377,1.571846899954835,1.629178406408755,1.7335346316394862,1.875575049314648,2.0907292420743033,2.376742600114085,2.663078045268776,2.905287555680843,3.082435468881158,3.196776394674089,3.2611938176560216,3.2853503512742463,3.2824515672400594,3.250242855749093,3.2103040535002947,3.1578038537700195,3.1024048700055573,3.047005886241095,2.9938615122810006,2.9452263579296414,2.9027108587615658,2.8647045792022254,2.837327174434904,2.803830114484299,2.7729097514529712,2.7400568657321855,2.703016847517574,2.6653326550731435,2.628614723973442,2.596728099597385,2.5677402592555154,2.5416512029478326,2.5313444152707234,2.516528407984879,2.5104087528015953,2.5052553589630406,2.503000749158673,2.4988136166648474,2.493338135711383,2.4897951774473768,2.4872184805280995,2.4891510032175574,2.4965590068604797,2.4930160485964734,2.4926939614815637
1745596787.4654355,2.4897951774473768,2.483031348034274,2.4730466474720743,2.4643502953695133,2.4601631628756877,2.4572643788415007,2.4537214205774944,2.4488901138538495,2.4595189886458684,2.4575864659564104,2.455009769037133,2.451144723658217,2.449212200968759,2.447279678279301,2.4498563751985785,2.447279678279301,2.4479238525091205,2.452110985002946,2.443736720015295,2.437939151946921,2.4314974096487276,2.427310277154902,2.427310277154902,2.428276538499631,2.4305311483039986,2.430209061189089,2.4269881900399923,2.426344015810173,2.4173255765927024,2.4134605312137865,2.4095954858348705,2.408951311605051,2.408307137375232,2.406052527570864,2.403475830651587,2.3989666110428516,2.3944573914341163,2.3925248687446583,2.3876935620210133,2.386083126446465,2.3864052135613747,2.3864052135613747,2.3815739068377297,2.375454251654446,2.367079986666795,2.361282418598421,2.357417373219505,2.3529081536107697,2.3493651953467634,2.3442118015082087,2.340024669014383,2.3339050138310995,2.3255307488434482,2.3235982261539903,2.3139356127067003,2.3120030900172424,2.3068496961786877,2.299119605420856,2.2907453404332045,2.2804385527560953,2.2717422006535344,2.262723761436064,2.25660410625278,2.254027409333503,2.252739060873864,2.2508065381844062,2.2459752314607613,2.236634705128381,2.225039568991633,2.2237512205319945,2.2189199138083495,2.21859782669344,2.2179536524636205,2.2208524364978075,2.220530349382898,2.223107046302175,2.223429133417085,2.21859782669344,2.223107046302175,2.224073307646904,2.227294178796001,2.232769659749465,2.242432273196755,2.252739060873864,2.2601470645167865,2.264656284125522,2.269165503734257,2.2707759393088054,2.2843035981350113,2.300085866765585,2.319089006545255,2.3252086617285386,2.344855975738028,2.3529081536107697,2.3789972099184524,2.3886598233657423,2.4002549595024902,2.4105617471795995,2.4318194967636373,2.4479238525091205
1745596787.6638048,2.464672382484423,2.480132564000087,2.492371874366654,2.5033228362735827,2.5178167564445175,2.5339211121900007,2.5484150323609356,2.561298516957322,2.5761145242431667,2.589964270184282,2.5964060124824755,2.6018814934359398,2.6096115841937717,2.616053326491965,2.6202404589857906,2.6224950687901583,2.635378553386545,2.634412292041816,2.6453632539487444,2.648584125097841,2.652449170476757,2.655347954510944,2.6595350870047696,2.6608234354644082,2.661145522579318,2.661145522579318,2.6608234354644082,2.653415431821486,2.6585688256600406,2.6595350870047696,2.665010567958234,2.666943090647692,2.670486048911698,2.6720964844862465,2.6701639617967885,2.669519787566969,2.667587264877511,2.6579246514302213,2.6634001323836856,2.664044306613505,2.6662989164178725,2.6682314391073305,2.670486048911698,2.669841874681879,2.676283616980072,2.6775719654397108,2.671774397371337,2.6672651777626015,2.681114923703717,2.6788603138993494,2.672418571601156,2.665976829302963,2.660179261234589,2.6511608220171183,2.6501945606723893,2.6501945606723893,2.6482620379829314,2.6460074281785637,2.6472957766382024,2.6453632539487444,2.6424644699145574,2.6402098601101898,2.637311076076003,2.631191420892719,2.6337681178119965,2.6328018564672675,2.6357006405014545,2.635056466271635,2.636022727616364,2.6414982085698284,2.6392435987654608,2.637955250305822,2.6414982085698284,2.634412292041816,2.6392435987654608,2.640854034340009,2.636988988961093,2.634090204926906,2.628614723973442,2.6253938528243452,2.6224950687901583,2.6221729816752486,2.621850894560339,2.619918371870881,2.6186300234112423,2.6147649780323263,2.6134766295726877,2.6076790615043137,2.6086453228490427,2.609289497078862,2.613154542457778,2.6137987166875973,2.61122201976832,2.6080011486192234,2.6051023645850364,2.6038140161253978,2.608323235734133,2.6166975007217843,2.6154091522621457,2.617019587836694
1745596787.8600588,2.6166975007217843,2.6173416749516036,2.6147649780323263,2.6128324553428683,2.6128324553428683,2.6186300234112423,2.6137987166875973,2.6221729816752486,2.6186300234112423,2.6157312393770553,2.6108999326534104,2.6067128001595847,2.6038140161253978,2.6051023645850364,2.6070348872744944,2.608323235734133,2.6080011486192234,2.6105778455385007,2.6028477547806688,2.599626883631572,2.596728099597385,2.594151402678108,2.593829315563198,2.596728099597385,2.598982709401753,2.600915232091211,2.600915232091211,2.6038140161253978,2.596728099597385,2.593829315563198,2.593829315563198,2.595117664022837,2.593829315563198,2.5973722738272045,2.6028477547806688,2.6022035805508494,2.599948970746482,2.600593144976301,2.5964060124824755,2.594795576907927,2.593185141333379,2.5925409671035595,2.589320095954463,2.5851329634606373,2.579657482507173,2.5735378273238894,2.569028607715154,2.5667739979107864,2.560332255612593,2.559688081382774,2.551957990624942,2.5455162483267486,2.5358536348794587,2.5284456312365364,2.5226480631681625,2.520393453363795,2.520071366248885,2.523936411627801,2.5236143245128915,2.5226480631681625,2.5245805858576205,2.526191021432169,2.5300560668110847,2.5361757219943684,2.535531547764549,2.5400407673732843,2.533599025075091,2.5281235441216268,2.522003888938343,2.5149179724103305,2.510730839916505,2.509764578571776,2.5100866656866856,2.5113750141463242,2.518138843559427,2.520071366248885,2.52522476008744,2.5303781539259944,2.5390745060285553,2.54422789986711,2.548092945246026,2.5542126004293095,2.557433471578406,2.561298516957322,2.560654342727503,2.561298516957322,2.56323103964678,2.5667739979107864,2.576758698472986,2.5819120923115406,2.585455050575547,2.5867433990351856,2.587387573265005,2.5848108763457276,2.5867433990351856,2.5828783536562696,2.585455050575547,2.5819120923115406,2.587387573265005,2.5848108763457276
1745596788.0634568,2.5822341794264503,2.5770807855878957,2.5735378273238894,2.569028607715154,2.568062346370425,2.5677402592555154,2.569028607715154,2.565163562336238,2.5706390432897024,2.5696727819449734,2.5551788617740385,2.558399732923135,2.5332769379601814,2.4988136166648474,2.452110985002946,2.3951015656639356,2.335193362290738,2.2601470645167865,2.1825240698235575,2.091051329189213,1.9905601493373979,1.8849155756470282,1.7783047406119294,1.6797460834495723,1.5905279526195955,1.5290093136718497,1.5125828708114568,1.5521995859453455,1.6481815461884253,1.7860348313697614,1.9915264106821269,2.2743188975728117,2.565163562336238,2.8138148150464986,2.9977265576599166,3.124950968049234,3.198708917363547,3.2286630190501455,3.235104761348339,3.216745795798488,3.185181258537341,3.1455645434034523,3.0982177375117317,3.047005886241095,2.9938615122810006,2.949413490423467,2.9088305139448494,2.8740451055346057,2.8437689167330973,2.814136902161408,2.7812840164406225,2.7439219111111015,2.701406411943026,2.6585688256600406,2.6176637620665133,2.58255626654136,2.5561451231187675,2.5416512029478326,2.522970150283072,2.5120191883761436,2.5023565749288537,2.4936602228262927,2.488828916102648,2.484641783608822,2.483997609379003,2.483031348034274,2.483997609379003,2.4917277001368348,2.4843196964939125,2.482065086689545,2.480776738229906,2.4794883897702675,2.4772337799659,2.4765896057360806,2.473368734586984,2.4711141247826163,2.466604905173881,2.4707920376677066,2.458874814416049,2.4566202046116814,2.4566202046116814,2.4575864659564104,2.45790855307132,2.4582306401862297,2.4546876819222234,2.453077246347675,2.451466810773127,2.455976030381862,2.4517888978880364,2.4524330721178558,2.4533993334625848,2.4527551592327654,2.450178462313488,2.447601765394211,2.443736720015295,2.441482110210927,2.4411600230960175,2.445669242704753,2.440515848866198,2.4411600230960175
1745596788.2581244,2.437939151946921,2.4353624550276436,2.4305311483039986,2.427310277154902,2.424411493120715,2.4218347962014377,2.4202243606268894,2.4256998415803537,2.416681402362883,2.4124942698690575,2.406052527570864,2.4012212208472192,2.4018653950770386,2.4005770466174,2.4002549595024902,2.398644523927942,2.3941353043192066,2.3925248687446583,2.378353035688633,2.3712671191606205,2.3635370284027886,2.357417373219505,2.3522639793809503,2.3500093695765827,2.3500093695765827,2.3451780628529377,2.3413130174740218,2.339058407669654,2.327463271532906,2.3232761390390806,2.3178006580856163,2.31425769982161,2.3071717832935974,2.300730040995404,2.292355776007753,2.2849477723648306,2.278828117181547,2.277861855836818,2.2723863748833537,2.2694875908491667,2.2685213295044377,2.2659446325851604,2.264334197010612,2.259824977401877,2.257570367597509,2.25692619336769,2.25692619336769,2.262401674321154,2.265300458355341,2.272064287768444,2.2785060300666373,2.2872023821691982,2.2872023821691982,2.2891349048586562,2.291389514663024,2.292355776007753,2.296220821386669,2.30459508637432,2.3136135255917907,2.321987790579442,2.326819097303087,2.337125884980196,2.3480768468871247,2.3599940701387823,2.372877554735169,2.388015649135923,2.396712001238484,2.4269881900399923,2.4421262844407465,2.458874814416049,2.4749791701615322,2.4843196964939125,2.5091204043419566,2.525868934317259,2.539396593143465,2.5571113844634965,2.567096085025696,2.5741820015537087,2.588353834609734,2.599626883631572,2.6108999326534104,2.6215288074454293,2.63022515954799,2.6392435987654608,2.6472957766382024,2.6530933447065763,2.6624338710389566,2.6634001323836856,2.670486048911698,2.672740658716066,2.686912491772091,2.6923879727255553,2.693676321185194,2.6933542340702843,2.6923879727255553,2.691743798495736,2.6962530181044713,2.694642582529923,2.704949370207032,2.7072039800114
1745596788.4643126,2.7065598057815805,2.705271457321942,2.7026947604026645,2.7010843248281162,2.6991518021386582,2.6997959763684776,2.7001180634833872,2.6959309309895616,2.703983108862303,2.704949370207032,2.703983108862303,2.7026947604026645,2.701406411943026,2.699473889253568,2.6978634536790196,2.696575105219381,2.6952867567597423,2.6972192794492003,2.6920658856106456,2.689811275806278,2.6904554500360973,2.6914217113808263,2.6923879727255553,2.6943204954150133,2.6949646696448326,2.6923879727255553,2.689811275806278,2.6795044881291687,2.684013707737904,2.682081185048446,2.6804707494738977,2.6798265752440784,2.6775719654397108,2.675317355635343,2.6711302231415175,2.6691977004520595,2.667587264877511,2.65921299988986,2.665654742188053,2.664688480843324,2.6634001323836856,2.6595350870047696,2.6559921287407633,2.6527712575916667,2.651482909132028,2.6508387349022087,2.653415431821486,2.648584125097841,2.656314215855673,2.6576025643153116,2.6566363029705826,2.652449170476757,2.645685341063654,2.6395656858803704,2.635056466271635,2.634412292041816,2.634412292041816,2.629580985318171,2.6337681178119965,2.6308693337778095,2.6270042883988936,2.6224950687901583,2.6215288074454293,2.621850894560339,2.6221729816752486,2.623783417249797,2.6260380270541646,2.6205625461007003,2.6205625461007003,2.6163754136068746,2.612188281113049,2.617019587836694,2.617985849181423,2.6205625461007003,2.6192741976410616,2.6192741976410616,2.6163754136068746,2.615087065147236,2.612188281113049,2.6115441068832297,2.6108999326534104,2.6128324553428683,2.614120803802507,2.6154091522621457,2.614120803802507,2.61122201976832,2.61122201976832,2.617019587836694,2.6186300234112423,2.621850894560339,2.6231392430199776,2.624749678594526,2.6224950687901583,2.6205625461007003,2.6173416749516036,2.6173416749516036,2.614120803802507,2.618952110526152,2.6176637620665133,2.6186300234112423
1745596788.6577034,2.617985849181423,2.615087065147236,2.6128324553428683,2.610255758423591,2.6089674099639524,2.6099336713086814,2.6105778455385007,2.6166975007217843,2.6125103682279587,2.6125103682279587,2.6105778455385007,2.6076790615043137,2.6096115841937717,2.6125103682279587,2.612188281113049,2.613154542457778,2.6108999326534104,2.6147649780323263,2.610255758423591,2.609289497078862,2.6080011486192234,2.606390713044675,2.6057465388148557,2.6051023645850364,2.605424451699946,2.6067128001595847,2.605424451699946,2.600915232091211,2.5993047965166625,2.6041361032403074,2.6047802774701267,2.6060686259297654,2.6060686259297654,2.602525667665759,2.596083925367566,2.5915747057588305,2.589964270184282,2.591252618643921,2.5860992248053662,2.5838446150009986,2.5780470469326247,2.570961130404612,2.5648414752213284,2.556467210233677,2.550991729280213,2.5487371194758452,2.550025467935484,2.552924251969671,2.5532463390845805,2.552602164854761,2.551635903510032,2.5503475550503936,2.5477708581311163,2.547126683901297,2.5484150323609356,2.552924251969671,2.556789297348587,2.5561451231187675,2.549059206590755,2.5400407673732843,2.5313444152707234,2.5255468472023495,2.523292237397982,2.524258498742711,2.526835195661988,2.5313444152707234,2.536497809109278,2.532632763730362,2.5416512029478326,2.5458383354416583,2.551635903510032,2.554534687544219,2.558721820038045,2.5645193881064188,2.570961130404612,2.576758698472986,2.5812679180817213,2.580623743851902,2.584488789230818,2.5880317474948242,2.596728099597385,2.6012373192061204,2.600593144976301,2.6002710578613915,2.5973722738272045,2.592863054218469,2.5880317474948242,2.583522527886089,2.5867433990351856,2.590930531529011,2.5925409671035595,2.593829315563198,2.5896421830693725,2.5880317474948242,2.59221887998865,2.592863054218469,2.596083925367566,2.59221887998865,2.594151402678108,2.5906084444141015
1745596788.8680081,2.5880317474948242,2.5860992248053662,2.5838446150009986,2.574826175783528,2.5571113844634965,2.5284456312365364,2.4804546511149965,2.415715141018154,2.360316157253692,2.2868802950542886,2.2053922549821436,2.116818298381986,2.027922254666919,1.930007771734381,1.826617807848379,1.726126627996564,1.6394851940858644,1.5802211649424862,1.573779422644293,1.6275679708342068,1.7306358476052992,1.8816947044979315,2.109088207624154,2.398644523927942,2.6804707494738977,2.9114072108641267,3.0805029461917,3.1874358683417086,3.2595833820814732,3.2834178285847884,3.2872828739637043,3.2708564311033115,3.236715196922887,3.197420568903908,3.151684198586736,3.1024048700055573,3.0569905868032947,3.011576303601032,2.979045504995156,2.9458705321594607,2.915916430472862,2.890793635509908,2.864060404972406,2.8318516934814397,2.7957779366115574,2.7555170472478494,2.7216979001823347,2.6923879727255553,2.6701639617967885,2.6492282993276604,2.6250717657094356,2.6192741976410616,2.608323235734133,2.600593144976301,2.5944734897930175,2.584488789230818,2.5822341794264503,2.580623743851902,2.5716053046344314,2.5654856494511478,2.558721820038045,2.555823036003858,2.552602164854761,2.5506696421653032,2.551635903510032,2.551957990624942,2.5522800777398515,2.559688081382774,2.5538905133144,2.55356842619949,2.551635903510032,2.551635903510032,2.5513138163951226,2.550991729280213,2.550025467935484,2.5474487710162066,2.5455162483267486,2.551957990624942,2.54422789986711,2.5448720740969293,2.5464825096714776,2.548092945246026,2.5477708581311163,2.546160422556568,2.5439058127522003,2.5406849416031037,2.5368198962241877,2.5426174642925616,2.5342431993049104,2.5323106766154524,2.5319885895005427,2.529733979696175,2.5265131085470784,2.523292237397982,2.520071366248885,2.519427192019066,2.51524005952524,2.5168504950997885,2.508798317227047,2.5052553589630406
1745596789.0660596,2.4997798780095764,2.4936602228262927,2.488506828987738,2.484963870723732,2.480132564000087,2.4794883897702675,2.4759454315062612,2.4717582990124356,2.4640282082546037,2.4556539432669524,2.4479238525091205,2.4411600230960175,2.43890541329165,2.4356845421425533,2.4308532354189083,2.433107845223276,2.4347182807978243,2.4269881900399923,2.421512709086528,2.412172182754148,2.402509569306858,2.3944573914341163,2.3883377362508327,2.3809297326079104,2.373521728964988,2.3645032897475176,2.3541965020704083,2.340024669014383,2.337447972095106,2.3319724911416415,2.329717881337274,2.321987790579442,2.3206994421198033,2.3168343967408873,2.3107147415576037,2.3081380446383264,2.3052392606041394,2.2975091698463075,2.3029846507997718,2.3058834348339587,2.3071717832935974,2.3062055219488684,2.3058834348339587,2.30459508637432,2.3058834348339587,2.3100705673277844,2.3149018740514293,2.3264970101881772,2.338092146324925,2.346788498427486,2.353552327840589,2.3619265928282402,2.368046248011524,2.376420512999175,2.3873714749061037,2.396712001238484,2.4115280085243285,2.420546447741799,2.4411600230960175,2.4537214205774944,2.466604905173881,2.477877954195719,2.4901172645622864,2.5062216203077696,2.521037627593614,2.5381082446838263,2.555823036003858,2.5696727819449734,2.5889980088395532,2.6057465388148557,2.6192741976410616,2.631513508007629,2.643752818374196,2.6530933447065763,2.6637222194985952,2.673706920060795,2.6833695335080847,2.686912491772091,2.694642582529923,2.6997959763684776,2.704305195977213,2.7084923284710385,2.711069025390316,2.711713199620135,2.713001548079774,2.713645722309593,2.7152561578841414,2.718477029033238,2.7226641615270637,2.7278175553656183,2.7278175553656183,2.7307163393998053,2.73586973323836,2.7342592976638116,2.732970949204173,2.7336151234339923,2.734903471893631,2.7361918203532696,2.7381243430427276,2.740701039962005
1745596789.2637634,2.741667301306734,2.743599823996192,2.739734778617276,2.738768517272547,2.7381243430427276,2.739734778617276,2.7410231270769145,2.74553234668565,2.7458544338005595,2.744243998226011,2.739734778617276,2.7361918203532696,2.7332930363190826,2.734903471893631,2.733937210548902,2.742311475536553,2.7400568657321855,2.738768517272547,2.7336151234339923,2.7265292069059797,2.7226641615270637,2.7191212032630574,2.7181549419183284,2.7168665934586897,2.7162224192288704,2.7142898965394124,2.712679460964864,2.711713199620135,2.7094585898157675,2.708814415585948,2.707848154241219,2.710102764045587,2.711069025390316,2.711069025390316,2.7133236351946834,2.711713199620135,2.7139678094245028,2.7168665934586897,2.715578244999051,2.7162224192288704,2.7133236351946834,2.7133236351946834,2.712035286735045,2.707848154241219,2.704305195977213,2.702372673287755,2.7010843248281162,2.703338934632484,2.7055935444368515,2.7072039800114,2.707848154241219,2.7046272830921225,2.7017284990579356,2.69754136656411,2.6968971923342906,2.69754136656411,2.7007622377132066,2.708814415585948,2.703983108862303,2.703016847517574,2.700440150598297,2.7007622377132066,2.7001180634833872,2.703016847517574,2.7055935444368515,2.7084923284710385,2.709136502700858,2.705271457321942,2.7046272830921225,2.699473889253568,2.6959309309895616,2.692710059840465,2.692710059840465,2.6943204954150133,2.695608843874652,2.6943204954150133,2.700440150598297,2.696575105219381,2.6991518021386582,2.695608843874652,2.6943204954150133,2.6930321469553746,2.691743798495736,2.6894891886913683,2.68787875311682,2.689811275806278,2.6901333629211877,2.6843357948528137,2.6875566660019103,2.685946230427362,2.6862683175422717,2.6843357948528137,2.6833695335080847,2.6824032721633557,2.683047446393175,2.6827253592782654,2.6795044881291687,2.6701639617967885,2.667909351992421,2.6617896968091372
1745596789.4589674,2.6579246514302213,2.6547037802811246,2.6521270833618473,2.6492282993276604,2.6469736895232927,2.6460074281785637,2.646651602408383,2.6424644699145574,2.6463295152934734,2.643752818374196,2.643752818374196,2.6434307312592864,2.6431086441443767,2.6424644699145574,2.636022727616364,2.6395656858803704,2.6414982085698284,2.636988988961093,2.635378553386545,2.63022515954799,2.6260380270541646,2.6212067203305196,2.6186300234112423,2.6128324553428683,2.6070348872744944,2.606390713044675,2.600915232091211,2.593185141333379,2.590286357299192,2.590286357299192,2.587387573265005,2.580623743851902,2.5741820015537087,2.5687065206002444,2.564197300991509,2.559365994267864,2.554856774659129,2.548092945246026,2.547126683901297,2.5448720740969293,2.546160422556568,2.546160422556568,2.546160422556568,2.5445499869820196,2.538430331798736,2.5397186802583747,2.536497809109278,2.533599025075091,2.5323106766154524,2.5274793698918074,2.521037627593614,2.514595885295421,2.5081541429972276,2.507832055882318,2.512663362605963,2.5197492791339755,2.52522476008744,2.531666502385633,2.537464070454007,2.538430331798736,2.5387524189136457,2.5371419833390974,2.5358536348794587,2.5339211121900007,2.532632763730362,2.535531547764549,2.537464070454007,2.5474487710162066,2.5416512029478326,2.548092945246026,2.5538905133144,2.5571113844634965,2.562264778302051,2.5648414752213284,2.5619426911871415,2.557433471578406,2.550025467935484,2.551635903510032,2.5406849416031037,2.5400407673732843,2.5406849416031037,2.539396593143465,2.539396593143465,2.5406849416031037,2.538430331798736,2.5339211121900007,2.5342431993049104,2.5348873735347297,2.5339211121900007,2.531666502385633,2.522970150283072,2.5065437074226793,2.4765896057360806,2.4327857581083663,2.373521728964988,2.3042729992594104,2.240499750507297,2.162876755814068,2.0656064471113496,1.9657594414893538
1745596789.6642604,1.8578602579946164,1.7438414193165954,1.632077190442942,1.5283651394420303,1.4504200576338917,1.4259414369007573,1.4613710195408203,1.5502670632558875,1.6845773901732173,1.869777481246274,2.1354993510467466,2.4318194967636373,2.7001180634833872,2.9117292979790363,3.056668499688385,3.1500737630121876,3.2064390081213787,3.219644579832675,3.2035402240871917,3.1722977739409544,3.1297822747728787,3.0811471204215195,3.0296131820359733,2.9803338534547947,2.936207918712171,2.8859623287862632,2.8466677007672843,2.8109160310123116,2.772265577223152,2.739734778617276,2.6988297150237486,2.6566363029705826,2.6147649780323263,2.574826175783528,2.543261638522381,2.516206320869969,2.4917277001368348,2.4749791701615322,2.464672382484423,2.455009769037133,2.447601765394211,2.4430925457854755,2.4376170648320112,2.4305311483039986,2.4240894060058054,2.4199022735119797,2.414748879673425,2.4163593152479734,2.4199022735119797,2.4228010575461667,2.420546447741799,2.423445231775986,2.4218347962014377,2.418613925052341,2.417647663707612,2.4115280085243285,2.4150709667883348,2.408307137375232,2.41023966006469,2.406374614685774,2.4002549595024902,2.395745739893755,2.391880694514839,2.3902702589402907,2.3954236527788453,2.394779478549026,2.393813217204297,2.391880694514839,2.3905923460552003,2.391880694514839,2.3809297326079104,2.3809297326079104,2.379319297033362,2.377386774343904,2.3786751228035428,2.373843816079898,2.3712671191606205,2.3609603314835113,2.3619265928282402,2.3599940701387823,2.3580615474493243,2.3577394603344146,2.357417373219505,2.357417373219505,2.3532302407256793,2.3422792788187508,2.3445338886231184,2.3416351045889314,2.339058407669654,2.3377700592100155,2.334227100946009,2.329717881337274,2.329717881337274,2.326819097303087,2.3197331807750743,2.316190222511068,2.313291438476881,2.3068496961786877,2.3049171734892298,2.299763779650675
1745596789.8580494,2.294288298697211,2.2868802950542886,2.2801164656411856,2.273996810457902,2.265300458355341,2.2562820191378705,2.2475856670353096,2.2408218376222067,2.2363126180134714,2.2311592241749167,2.225039568991633,2.2198861751530785,2.212800258625066,2.209901474590879,2.207002690556692,2.202171383833047,2.2057143420970533,2.2018492967181373,2.195407554419944,2.1892878992366605,2.182846156938467,2.17994737290428,2.1786590244446415,2.181235721363919,2.182846156938467,2.1844565925130155,2.182201982708648,2.1883216378919315,2.18960998635157,2.191542509041028,2.2005609482584987,2.1986284255690407,2.2092573003610596,2.215699042659253,2.219242000923259,2.225361656106543,2.2295487886003684,2.2382451407029293,2.2466194056905806,2.255637844908051,2.265300458355341,2.2746409846877214,2.2839815110201016,2.293966211582301,2.3068496961786877,2.3226319648092613,2.340990930359112,2.3548406763002276,2.374487990309717,2.3970340883533936,2.412172182754148,2.431175322533818,2.447279678279301,2.4611294242204167,2.4736908217018936,2.4917277001368348,2.5091204043419566,2.5207155404787045,2.5319885895005427,2.539396593143465,2.5464825096714776,2.5532463390845805,2.5638752138765994,2.5735378273238894,2.5822341794264503,2.591252618643921,2.604458190355217,2.599948970746482,2.606390713044675,2.6115441068832297,2.62088463321561,2.633446030697087,2.625715939939255,2.6305472466629,2.634090204926906,2.6392435987654608,2.6405319472250994,2.6357006405014545,2.638921511650551,2.6414982085698284,2.644719079718925,2.647617863753112,2.651482909132028,2.6537375189363956,2.653415431821486,2.6508387349022087,2.6530933447065763,2.644719079718925,2.652449170476757,2.6559921287407633,2.658246738545131,2.658246738545131,2.6547037802811246,2.64955038644257,2.647617863753112,2.652449170476757,2.6498724735574797,2.6508387349022087,2.6537375189363956,2.6559921287407633
1745596790.0661073,2.6537375189363956,2.6492282993276604,2.644719079718925,2.6431086441443767,2.644719079718925,2.6460074281785637,2.6463295152934734,2.6443969926040154,2.6424644699145574,2.6385994245356414,2.6308693337778095,2.6366669018461835,2.63022515954799,2.6305472466629,2.632157682237448,2.638277337420732,2.6305472466629,2.629580985318171,2.6250717657094356,2.6231392430199776,2.621850894560339,2.6202404589857906,2.6224950687901583,2.6231392430199776,2.621850894560339,2.6195962847559713,2.612188281113049,2.6147649780323263,2.6115441068832297,2.6128324553428683,2.6125103682279587,2.6125103682279587,2.6163754136068746,2.6176637620665133,2.6125103682279587,2.6166975007217843,2.6128324553428683,2.617019587836694,2.6128324553428683,2.6134766295726877,2.613154542457778,2.610255758423591,2.6060686259297654,2.595761838252656,2.6018814934359398,2.599948970746482,2.60155940632103,2.6022035805508494,2.5983385351719335,2.606390713044675,2.605424451699946,2.6051023645850364,2.6038140161253978,2.603491929010488,2.6022035805508494,2.6060686259297654,2.6067128001595847,2.6028477547806688,2.6067128001595847,2.6047802774701267,2.600593144976301,2.5983385351719335,2.598982709401753,2.60155940632103,2.605424451699946,2.613154542457778,2.6022035805508494,2.6125103682279587,2.608323235734133,2.6041361032403074,2.6060686259297654,2.598016448057024,2.6022035805508494,2.600593144976301,2.6022035805508494,2.600915232091211,2.6002710578613915,2.602525667665759,2.595761838252656,2.593185141333379,2.589320095954463,2.5906084444141015,2.591252618643921,2.592863054218469,2.59221887998865,2.590286357299192,2.589964270184282,2.586421311920276,2.5915747057588305,2.598982709401753,2.599626883631572,2.599948970746482,2.599626883631572,2.597694360942114,2.593829315563198,2.5935072284482885,2.59221887998865,2.596728099597385,2.589964270184282,2.591252618643921
1745596790.2628922,2.589964270184282,2.589964270184282,2.5860992248053662,2.58255626654136,2.58255626654136,2.5838446150009986,2.5812679180817213,2.578691221162444,2.5809458309668116,2.5774028727028053,2.5703169561747927,2.5658077365660574,2.560332255612593,2.5551788617740385,2.551635903510032,2.5503475550503936,2.550025467935484,2.5484150323609356,2.535531547764549,2.526191021432169,2.518138843559427,2.5133075368357822,2.5062216203077696,2.503000749158673,2.497203181090299,2.492371874366654,2.483997609379003,2.4930160485964734,2.4901172645622864,2.4930160485964734,2.49623691974557,2.501068226469215,2.5071878816524986,2.5100866656866856,2.5094424914568663,2.500101965124486,2.5013903135841247,2.498169442435028,2.492371874366654,2.4897951774473768,2.487540567643009,2.4872184805280995,2.48689639341319,2.4843196964939125,2.4872184805280995,2.4891510032175574,2.494304397056112,2.5017124006990343,2.5055774460779503,2.5091204043419566,2.517494669329608,2.5139517110656016,2.5158842337550595,2.5149179724103305,2.5100866656866856,2.514273798180511,2.522970150283072,2.526835195661988,2.5281235441216268,2.527801457006717,2.5265131085470784,2.5255468472023495,2.524258498742711,2.525868934317259,2.527801457006717,2.5271572827768978,2.52522476008744,2.528767718351446,2.5303781539259944,2.529733979696175,2.5332769379601814,2.5342431993049104,2.535531547764549,2.5377861575689167,2.5310223281558137,2.5290898054663558,2.5329548508452717,2.5271572827768978,2.5284456312365364,2.5281235441216268,2.52522476008744,2.520071366248885,2.5046111847332213,2.4736908217018936,2.4202243606268894,2.369656683586072,2.30459508637432,2.2295487886003684,2.1441957031493075,2.048857917136047,1.9448237790202256,1.831449114572024,1.716464014549274,1.5989022176072467,1.4897146856528707,1.4111254296149127,1.3921222898352426,1.4362482245778665,1.5415707111533266,1.6910191324714106
1745596790.4598823,1.9016641056223307,2.1770485888700932,2.4611294242204167,2.710102764045587,2.895624942233553,3.0302573562657926,3.1136779190273955,3.151684198586736,3.1684327285620384,3.1571596795402,3.1317147974623367,3.096929389052093,3.0560243254585657,3.009965868026484,2.963585323479492,2.9239686083456036,2.8837077189818956,2.8379713486647233,2.806728898518486,2.77419809991261,2.739734778617276,2.701406411943026,2.661145522579318,2.6202404589857906,2.5832004407711793,2.548092945246026,2.519105104904156,2.4910835259070154,2.480776738229906,2.474334995931713,2.4746570830466226,2.4643502953695133,2.469503689208068,2.455009769037133,2.4543655948073138,2.4459913298196625,2.4498563751985785,2.4411600230960175,2.444702981360024,2.442448371555656,2.440515848866198,2.4385833261767402,2.4353624550276436,2.433107845223276,2.4308532354189083,2.4289207127294503,2.4279544513847213,2.4228010575461667,2.4314974096487276,2.433107845223276,2.4363287163723726,2.4356845421425533,2.435040367912734,2.4324636709934566,2.4318194967636373,2.430209061189089,2.431175322533818,2.4285986256145407,2.431175322533818,2.427310277154902,2.4250556673505343,2.4218347962014377,2.418613925052341,2.4173255765927024,2.4192580992821604,2.4189360121672507,2.4179697508225217,2.4150709667883348,2.409273398719961,2.405408353341045,2.4002549595024902,2.3963899141235743,2.3944573914341163,2.394779478549026,2.3941353043192066,2.3925248687446583,2.3867273006762844,2.3835064295271877,2.3741659031948075,2.3674020737817045,2.3625707670580596,2.3590278087940533,2.3580615474493243,2.3551627634151373,2.349687282461673,2.3435676272783894,2.338414233439835,2.338414233439835,2.329395794222364,2.327463271532906,2.3242424003838096,2.3197331807750743,2.3126472642470617,2.305561347719049,2.300085866765585,2.29525456004194,2.29493247292703,2.2965429085015785,2.288490730628837,2.279794378526276
1745596790.6679842,2.2694875908491667,2.2572482804825995,2.2485519283800386,2.23760096647311,2.232769659749465,2.2292267014854588,2.2247174818767235,2.2237512205319945,2.222140784957446,2.222462872072356,2.2198861751530785,2.219242000923259,2.2160211297741625,2.2150548684294336,2.21827573957853,2.2095793874759693,2.2140886070847046,2.21859782669344,2.217309478233801,2.21859782669344,2.2208524364978075,2.2227849591872655,2.227294178796001,2.2324475726345554,2.235668443783652,2.2408218376222067,2.2450089701160323,2.2508065381844062,2.260469151631696,2.269165503734257,2.2775397687219083,2.2881686435139272,2.302018389455043,2.3110368286725134,2.3206994421198033,2.334549188060919,2.3480768468871247,2.3567731989896856,2.375454251654446,2.3902702589402907,2.4066967018006835,2.4211906219716184,2.4382612390618306,2.451466810773127,2.4649944695993327,2.4785221284255385,2.494304397056112,2.5104087528015953,2.5265131085470784,2.5397186802583747,2.550991729280213,2.559365994267864,2.5658077365660574,2.5751482628984377,2.5857771376904566,2.594151402678108,2.605424451699946,2.6076790615043137,2.618952110526152,2.62088463321561,2.6215288074454293,2.6234613301348872,2.6253938528243452,2.627648462628713,2.628614723973442,2.629580985318171,2.631191420892719,2.6347343791567255,2.637955250305822,2.6411761214549188,2.6434307312592864,2.6463295152934734,2.648584125097841,2.6521270833618473,2.6559921287407633,2.656314215855673,2.6566363029705826,2.6501945606723893,2.6579246514302213,2.65921299988986,2.661145522579318,2.6598571741196793,2.6595350870047696,2.6588909127749503,2.6588909127749503,2.6595350870047696,2.6605013483494986,2.657280477200402,2.6653326550731435,2.6653326550731435,2.6634001323836856,2.6598571741196793,2.6559921287407633,2.651482909132028,2.6556700416258536,2.6498724735574797,2.651482909132028,2.6530933447065763,2.657280477200402,2.656314215855673
1745596790.8626673,2.6540596060513053,2.6489062122127507,2.644719079718925,2.641820295684738,2.63988777299528,2.637311076076003,2.6328018564672675,2.631191420892719,2.633446030697087,2.631513508007629,2.628292636858532,2.6260380270541646,2.6270042883988936,2.63022515954799,2.636022727616364,2.6376331631909125,2.634090204926906,2.63022515954799,2.629580985318171,2.6299030724330805,2.6305472466629,2.6299030724330805,2.6328018564672675,2.631513508007629,2.629580985318171,2.628614723973442,2.626682201283984,2.6241055043647066,2.6205625461007003,2.629580985318171,2.626682201283984,2.6263601141690742,2.6224950687901583,2.618952110526152,2.6128324553428683,2.6105778455385007,2.6147649780323263,2.618952110526152,2.617985849181423,2.6173416749516036,2.6173416749516036,2.6144428909174167,2.6115441068832297,2.6115441068832297,2.6137987166875973,2.6166975007217843,2.6183079362963326,2.621850894560339,2.625715939939255,2.6270042883988936,2.631191420892719,2.6250717657094356,2.6192741976410616,2.6260380270541646,2.6205625461007003,2.6186300234112423,2.6166975007217843,2.61122201976832,2.6089674099639524,2.6108999326534104,2.6144428909174167,2.618952110526152,2.62088463321561,2.6221729816752486,2.6244275914796162,2.625715939939255,2.623783417249797,2.62088463321561,2.6173416749516036,2.616053326491965,2.616053326491965,2.6166975007217843,2.6186300234112423,2.618952110526152,2.6173416749516036,2.626682201283984,2.6241055043647066,2.62088463321561,2.6215288074454293,2.6231392430199776,2.6250717657094356,2.625715939939255,2.624749678594526,2.6221729816752486,2.6212067203305196,2.616053326491965,2.6118661939981394,2.6041361032403074,2.607356974389404,2.6115441068832297,2.6157312393770553,2.6221729816752486,2.6215288074454293,2.6205625461007003,2.6173416749516036,2.617985849181423,2.619918371870881,2.615087065147236,2.6176637620665133,2.614120803802507
1745596791.060173,2.608323235734133,2.6031698418955784,2.5973722738272045,2.5906084444141015,2.5877096603799146,2.586421311920276,2.587387573265005,2.5906084444141015,2.5841667021159083,2.5799795696220826,2.5770807855878957,2.577724959817715,2.5860992248053662,2.5867433990351856,2.5964060124824755,2.597050186712295,2.6041361032403074,2.597050186712295,2.5973722738272045,2.594795576907927,2.593829315563198,2.59189679287374,2.59221887998865,2.59221887998865,2.590286357299192,2.5886759217246436,2.5889980088395532,2.5848108763457276,2.592863054218469,2.596728099597385,2.6099336713086814,2.622817155905068,2.6221729816752486,2.625715939939255,2.6186300234112423,2.6221729816752486,2.629258898203261,2.6318355951225385,2.6376331631909125,2.640854034340009,2.6424644699145574,2.6431086441443767,2.6434307312592864,2.6460074281785637,2.6463295152934734,2.6537375189363956,2.661145522579318,2.6608234354644082,2.6653326550731435,2.662111783924047,2.6585688256600406,2.6540596060513053,2.6511608220171183,2.6527712575916667,2.6537375189363956,2.6559921287407633,2.65921299988986,2.65921299988986,2.6540596060513053,2.647617863753112,2.6421423827996477,2.638277337420732,2.6328018564672675,2.617019587836694,2.5973722738272045,2.543261638522381,2.4930160485964734,2.4334299323381856,2.3599940701387823,2.2678771552746184,2.179303198674461,2.0797782801673748,1.9680140512937214,1.8633357389480807,1.757691165257711,1.6565558111760765,1.5734573355293833,1.5254663554078434,1.5380277528893203,1.6143623991229106,1.7361113285587635,1.9142255031038076,2.1660976269631647,2.4366508034872822,2.6740290071757045,2.8672812761215027,2.9938615122810006,3.084367991570616,3.146852891863091,3.1771290806645993,3.184214997192612,3.1597363764594775,3.150395850127097,3.1281718391983304,3.0914539080986287,3.065364851790946,3.045073363551637,3.0244597881974187,2.990640641131904,2.961008626560215
1745596791.2661474,2.930410350643797,2.900456248957198,2.870824234385509,2.8405480455840006,2.807695159863215,2.773231838567881,2.738768517272547,2.7072039800114,2.6711302231415175,2.648584125097841,2.632479769352358,2.617019587836694,2.607356974389404,2.609289497078862,2.6012373192061204,2.5944734897930175,2.59221887998865,2.5896421830693725,2.5803016567369923,2.577724959817715,2.5764366113580763,2.5754703500133473,2.573859914438799,2.5745040886686184,2.569994869059883,2.569994869059883,2.56323103964678,2.56323103964678,2.560654342727503,2.5654856494511478,2.562586865416961,2.562264778302051,2.558399732923135,2.5571113844634965,2.557755558693316,2.552602164854761,2.5538905133144,2.5493812937056646,2.5458383354416583,2.5474487710162066,2.5439058127522003,2.5410070287180133,2.5390745060285553,2.5358536348794587,2.5368198962241877,2.5245805858576205,2.529733979696175,2.5303781539259944,2.5290898054663558,2.530700241040904,2.525868934317259,2.518460930674337,2.504933271848131,2.5104087528015953,2.509764578571776,2.51556214664015,2.517172582214698,2.5129854497208726,2.510730839916505,2.502034487813944,2.4926939614815637,2.481742999574635,2.4749791701615322,2.4727245603571646,2.4717582990124356,2.470469950552797,2.46757116651861,2.465638643829152,2.4582306401862297,2.4488901138538495,2.451144723658217,2.4459913298196625,2.440515848866198,2.442770458670566,2.440515848866198,2.4376170648320112,2.4314974096487276,2.4199022735119797,2.413782618328696,2.4012212208472192,2.39091443317011,2.386083126446465,2.384150603757007,2.380285558378091,2.375776338769356,2.370945032045711,2.3599940701387823,2.3580615474493243,2.3529081536107697,2.3464664113125764,2.341957191703841,2.337447972095106,2.3339050138310995,2.3252086617285386,2.322954051924171,2.3197331807750743,2.320055267889984,2.317156483855797,2.324886574613629,2.3252086617285386
1745596791.4627733,2.325852835958358,2.3271411844179966,2.329717881337274,2.334549188060919,2.339380494784564,2.343889714393299,2.354518589185318,2.360316157253692,2.356451111874776,2.3606382443686016,2.367724160896614,2.3712671191606205,2.3780309485737234,2.392846955859568,2.3980003496981226,2.4115280085243285,2.4221568833163474,2.4347182807978243,2.442448371555656,2.452110985002946,2.4643502953695133,2.4765896057360806,2.4891510032175574,2.5042890976183116,2.521037627593614,2.52490267297253,2.539396593143465,2.5513138163951226,2.559688081382774,2.575792437128257,2.5867433990351856,2.594795576907927,2.6115441068832297,2.6157312393770553,2.627648462628713,2.6241055043647066,2.63988777299528,2.650516647787299,2.6585688256600406,2.6653326550731435,2.6701639617967885,2.673706920060795,2.6740290071757045,2.676283616980072,2.6778940525546204,2.6824032721633557,2.683047446393175,2.684013707737904,2.684979969082633,2.6882008402317297,2.6910996242659166,2.6949646696448326,2.7010843248281162,2.6943204954150133,2.6991518021386582,2.704305195977213,2.703338934632484,2.708170241356129,2.7072039800114,2.706237718666671,2.7007622377132066,2.6981855407939292,2.6943204954150133,2.694642582529923,2.692710059840465,2.6894891886913683,2.6952867567597423,2.694642582529923,2.6933542340702843,2.6904554500360973,2.6910996242659166,2.690777537151007,2.691743798495736,2.6904554500360973,2.6952867567597423,2.6923879727255553,2.6910996242659166,2.6846578819677234,2.685946230427362,2.6882008402317297,2.690777537151007,2.691743798495736,2.689811275806278,2.6824032721633557,2.675317355635343,2.666943090647692,2.664688480843324,2.6672651777626015,2.6701639617967885,2.6682314391073305,2.669519787566969,2.671774397371337,2.6682314391073305,2.6672651777626015,2.658246738545131,2.6605013483494986,2.6579246514302213,2.6530933447065763,2.656314215855673,2.6550258673960343
1745596791.659757,2.6518049962469377,2.6450411668338347,2.6376331631909125,2.631191420892719,2.6289368110883515,2.6308693337778095,2.628292636858532,2.6376331631909125,2.6395656858803704,2.6450411668338347,2.6402098601101898,2.6460074281785637,2.6385994245356414,2.637955250305822,2.6395656858803704,2.641820295684738,2.641820295684738,2.632479769352358,2.6299030724330805,2.6270042883988936,2.624749678594526,2.6250717657094356,2.625715939939255,2.6241055043647066,2.6231392430199776,2.6186300234112423,2.6163754136068746,2.613154542457778,2.616053326491965,2.6195962847559713,2.6221729816752486,2.6166975007217843,2.6176637620665133,2.614120803802507,2.6118661939981394,2.6070348872744944,2.6108999326534104,2.609289497078862,2.6176637620665133,2.6176637620665133,2.613154542457778,2.6070348872744944,2.5983385351719335,2.59189679287374,2.5915747057588305,2.5867433990351856,2.581590005196631,2.576758698472986,2.5809458309668116,2.5841667021159083,2.580623743851902,2.580623743851902,2.5790133082773536,2.5803016567369923,2.585455050575547,2.5886759217246436,2.5915747057588305,2.59221887998865,2.5822341794264503,2.5716053046344314,2.560654342727503,2.5513138163951226,2.5458383354416583,2.5455162483267486,2.5484150323609356,2.5506696421653032,2.5532463390845805,2.561298516957322,2.560654342727503,2.561620604072232,2.5732157402089797,2.5838446150009986,2.595761838252656,2.606390713044675,2.599948970746482,2.599626883631572,2.597694360942114,2.597050186712295,2.5925409671035595,2.5973722738272045,2.60155940632103,2.6060686259297654,2.6076790615043137,2.605424451699946,2.599626883631572,2.598982709401753,2.599626883631572,2.605424451699946,2.603491929010488,2.604458190355217,2.6060686259297654,2.6089674099639524,2.6128324553428683,2.599626883631572,2.603491929010488,2.609289497078862,2.608323235734133,2.6128324553428683,2.6086453228490427,2.6086453228490427
